-35	-43
25	19
17	9
-8	-16
-23	-32
-32	-41
-30	-39
-52	-63
-74	-83
-83	-94
-88	-97
-113	-125
-105	-113
-98	-107
-97	-106
-92	-101
-124	-133
-110	-118
-78	-86
-116	-126
-146	-155
-111	-121
-107	-115
-108	-118
-131	-139
-4	-10
70	65
123	121
252	251
330	330
305	306
169	157
-259	-276
-461	-480
-417	-431
-325	-339
-279	-290
-145	-154
-78	-87
-120	-129
-85	-93
-82	-91
-68	-76
-66	-76
-96	-104
-60	-68
-47	-55
-65	-72
-63	-72
-39	-47
-68	-77
-58	-65
-40	-47
-38	-46
-54	-62
-43	-51
-32	-40
-12	-20
-39	-45
-10	-18
-22	-28
-35	-43
-4	-9
6	0
38	31
25	19
33	27
30	24
30	25
69	63
71	67
76	70
72	68
110	106
140	136
129	126
166	163
161	158
225	224
200	196
197	194
191	189
233	233
237	233
210	208
192	189
172	168
155	150
115	110
128	122
85	78
13	6
-9	-18
-21	-31
-54	-64
-99	-107
-67	-75
-60	-68
-85	-92
-81	-91
-154	-164
-130	-139
-88	-97
-91	-101
-139	-149
-125	-134
-110	-117
-128	-137
-133	-142
-135	-144
-118	-127
-108	-116
-122	-131
-113	-120
-109	-118
-116	-127
-124	-133
-104	-114
-109	-118
-107	-117
-121	-131
-124	-134
-134	-144
-149	-159
-114	-124
-97	-108
-118	-127
-128	-138
-150	-159
-115	-125
-101	-111
-121	-130
-116	-125
-123	-131
-109	-120
-116	-126
-143	-153
-136	-146
-153	-165
-146	-157
-160	-170
-154	-164
-126	-136
-129	-140
-150	-161
-136	-145
-131	-144
-182	-192
-171	-182
-168	-178
-147	-159
-158	-170
-177	-187
-145	-157
-173	-185
-183	-193
-134	-143
-146	-157
-131	-141
-165	-177
-174	-184
-175	-186
-125	-136
-154	-165
-177	-189
-197	-208
-176	-188
-165	-175
-121	-132
-172	-182
-154	-164
-176	-188
-167	-178
-176	-188
-168	-179
-146	-157
-163	-174
-160	-170
-148	-160
-165	-176
-175	-186
-142	-151
-161	-170
-138	-147
-118	-129
-93	-100
-87	-97
-82	-91
-37	-46
-54	-63
-35	-42
-64	-72
-79	-88
-132	-141
-100	-110
-136	-146
-117	-127
-138	-149
-151	-161
-141	-152
-181	-192
-140	-150
-153	-166
-184	-192
-166	-178
-162	-173
-166	-176
-166	-177
-168	-178
-149	-160
-143	-152
-141	-152
-154	-164
-97	-103
-8	-15
1	-3
153	152
291	291
263	261
172	161
-227	-245
-450	-469
-484	-499
-389	-403
-299	-310
-193	-204
-157	-165
-120	-130
-126	-135
-96	-105
-78	-87
-79	-87
-67	-76
-98	-107
-84	-93
-64	-70
-61	-69
-22	-30
-42	-52
-46	-53
-34	-42
-35	-42
-33	-42
-63	-71
-21	-28
-2	-8
1	-6
-1	-8
-2	-8
6	-1
-11	-18
1	-6
10	5
34	27
27	20
39	34
59	55
83	79
100	96
92	87
96	91
99	95
144	139
146	143
166	162
167	164
165	161
176	174
206	204
198	196
209	206
194	191
210	207
210	207
183	179
137	132
139	136
141	137
112	107
81	74
71	67
39	32
8	0
12	5
-21	-30
-31	-39
-31	-39
-27	-36
-67	-75
-11	-18
-22	-30
-10	-18
-39	-47
-35	-43
-35	-43
-56	-65
-23	-32
-18	-26
-32	-41
-15	-22
-32	-40
-31	-39
-3	-10
-10	-18
-24	-31
-7	-14
-13	-21
-24	-32
-8	-16
-7	-14
22	16
8	0
-7	-14
2	-5
4	-4
-8	-16
-11	-20
-4	-11
11	2
-30	-38
-12	-19
-4	-11
5	-3
-13	-21
-14	-21
-7	-14
-7	-13
-1	-8
-10	-17
-6	-13
-16	-23
-12	-19
-17	-25
1	-5
-11	-17
16	10
-19	-26
0	-7
2	-6
-12	-19
-8	-15
0	-7
-7	-14
-19	-27
-17	-24
-4	-10
-3	-10
-13	-20
6	-1
-1	-9
6	0
10	2
-15	-22
-8	-14
13	6
-8	-14
-20	-26
9	3
29	22
8	2
24	19
43	36
61	56
81	76
92	88
107	103
105	100
67	61
54	49
53	46
50	44
26	18
11	6
22	14
-7	-15
-22	-30
-22	-30
-17	-24
-13	-20
-30	-38
-22	-29
-22	-29
2	-4
-7	-14
-14	-21
-4	-10
5	-1
-1	-8
1	-5
43	38
147	144
194	192
319	321
446	449
404	405
308	303
-62	-75
-315	-332
-405	-420
-286	-298
-200	-210
-82	-88
17	11
8	2
22	15
44	39
52	45
33	27
38	32
46	40
48	42
47	41
48	42
52	47
51	46
51	42
40	34
66	62
54	49
78	73
76	71
83	78
84	78
93	87
85	79
106	99
107	102
112	107
115	112
124	120
134	130
138	134
154	151
190	185
179	176
195	192
203	200
209	207
239	237
247	246
286	285
294	294
294	293
302	302
299	299
317	318
359	359
323	324
320	319
307	306
288	286
253	251
220	217
209	206
166	163
142	136
99	94
80	73
58	52
54	47
12	5
40	33
20	14
29	22
-16	-24
5	-2
13	6
2	-5
-6	-13
3	-4
-12	-20
-19	-25
4	-2
10	3
10	3
0	-8
-15	-23
9	2
18	11
1	-6
1	-6
4	-1
18	11
10	3
13	6
11	3
14	9
0	-6
-5	-13
25	19
35	28
9	2
9	3
24	17
23	17
11	5
13	6
21	15
23	15
11	4
18	12
16	10
13	6
7	0
16	9
0	-7
22	15
13	6
5	-1
18	13
24	17
13	8
14	7
7	0
9	2
-2	-9
4	-3
4	-3
5	-2
9	2
4	-3
0	-6
21	16
16	9
18	11
17	10
15	8
27	20
24	17
18	11
13	6
11	4
21	13
25	19
42	36
23	17
28	22
35	31
23	18
25	19
26	20
29	24
48	44
52	47
62	56
104	100
115	110
96	91
126	123
151	147
106	101
100	95
80	75
95	90
82	76
51	45
63	58
54	48
33	27
24	17
22	15
23	16
30	24
20	14
34	30
35	29
31	25
43	37
32	26
44	39
60	55
54	50
100	97
196	196
259	260
394	399
531	536
488	491
442	441
23	10
-256	-269
-309	-322
-234	-245
-133	-142
-17	-22
82	76
88	82
84	78
98	94
107	102
95	90
118	113
117	113
137	133
133	129
127	123
135	131
141	137
142	138
141	138
144	141
152	148
150	148
152	149
159	156
172	170
171	168
189	186
192	191
201	199
204	202
212	210
222	220
242	241
247	246
254	254
269	269
293	293
300	300
305	306
348	350
364	366
377	379
382	384
403	406
429	432
446	448
447	450
446	450
487	492
482	485
459	463
464	467
444	447
416	418
383	384
349	350
318	318
279	279
243	242
225	223
207	204
171	168
184	182
160	157
153	150
134	130
119	115
147	144
142	139
133	129
127	124
127	124
123	119
125	121
126	122
122	119
137	133
124	119
115	111
127	123
126	121
134	131
138	134
138	134
126	122
116	112
142	138
134	130
134	131
130	126
125	121
129	125
131	127
132	128
107	105
135	132
144	140
125	121
121	117
125	121
119	115
116	111
111	107
102	98
114	110
112	108
106	102
111	107
100	96
113	109
97	93
97	92
99	94
93	88
87	83
91	86
86	82
83	78
79	74
87	82
84	79
81	75
72	67
69	64
76	71
71	66
67	63
67	63
72	66
70	65
64	60
66	61
61	55
56	50
63	57
47	42
77	72
70	65
59	53
69	63
60	55
53	48
50	44
41	36
61	55
46	42
48	42
41	35
50	45
43	36
34	27
40	35
54	49
59	54
77	73
92	87
105	100
96	91
107	103
118	113
90	85
64	59
45	38
70	65
60	54
43	36
15	7
1	-7
-7	-15
-20	-27
-19	-27
-19	-26
-26	-33
-30	-38
-34	-42
-30	-38
-27	-34
-32	-41
-37	-45
-30	-38
-24	-33
-40	-48
8	3
103	100
156	154
277	278
403	406
390	390
316	311
-44	-59
-358	-375
-424	-439
-346	-360
-261	-272
-135	-144
-47	-55
-31	-39
-50	-58
-31	-40
-19	-26
-16	-24
-31	-40
-33	-41
-27	-35
-21	-28
-16	-24
-24	-33
-24	-32
-14	-22
-17	-25
-20	-27
-11	-18
-16	-23
-20	-28
-16	-24
-12	-20
-3	-10
13	5
8	1
14	7
9	2
25	19
26	20
31	25
43	38
48	42
57	51
58	53
89	84
91	86
97	93
116	113
136	132
139	135
157	155
176	172
195	192
179	177
198	196
199	197
198	196
200	197
190	187
161	157
139	135
118	113
72	66
34	27
0	-6
-30	-39
-49	-59
-79	-89
-113	-124
-129	-138
-130	-141
-136	-147
-146	-156
-167	-178
-173	-184
-192	-203
-158	-169
-177	-189
-178	-189
-182	-193
-170	-181
-191	-203
-190	-201
-184	-195
-182	-194
-205	-218
-188	-199
-192	-202
-192	-203
-205	-217
-201	-212
-194	-205
-188	-199
-205	-217
-207	-219
-208	-219
-196	-207
-183	-194
-196	-207
-190	-201
-193	-204
-193	-204
-203	-214
-176	-187
-185	-196
-202	-214
-209	-221
-191	-202
-199	-210
-194	-206
-213	-225
-201	-214
-201	-213
-213	-225
-213	-226
-205	-217
-204	-217
-212	-224
-220	-232
-211	-223
-207	-219
-214	-226
-219	-231
-199	-211
-200	-212
-204	-217
-208	-219
-202	-215
-213	-226
-204	-215
-198	-211
-211	-222
-210	-222
-213	-226
-213	-227
-217	-230
-219	-231
-215	-227
-216	-229
-209	-221
-196	-209
-211	-224
-219	-230
-196	-208
-193	-205
-201	-214
-207	-220
-209	-222
-197	-209
-200	-212
-205	-218
-210	-222
-188	-199
-203	-214
-193	-205
-195	-206
-186	-198
-202	-213
-191	-202
-188	-198
-174	-185
-173	-184
-153	-163
-139	-150
-127	-137
-114	-124
-110	-120
-103	-112
-82	-92
-102	-112
-127	-137
-143	-153
-139	-150
-163	-174
-175	-187
-167	-178
-200	-213
-199	-210
-184	-196
-189	-200
-186	-198
-206	-218
-193	-206
-194	-206
-200	-213
-209	-222
-208	-220
-191	-203
-180	-192
-189	-201
-197	-208
-138	-147
-51	-59
1	-4
129	127
277	276
239	236
144	134
-237	-256
-485	-505
-548	-566
-450	-468
-359	-373
-251	-262
-187	-199
-169	-181
-150	-161
-142	-153
-127	-137
-141	-152
-134	-144
-121	-130
-108	-118
-114	-124
-111	-121
-102	-112
-102	-111
-107	-117
-99	-109
-95	-105
-83	-91
-86	-95
-84	-92
-74	-82
-66	-74
-73	-82
-67	-76
-55	-64
-42	-51
-45	-53
-35	-43
-18	-25
-6	-13
-4	-11
12	5
6	-2
27	21
45	38
57	52
70	65
80	74
90	85
109	105
124	122
147	143
141	137
146	143
160	157
173	169
169	165
165	161
180	176
158	155
126	121
108	103
90	84
58	51
21	14
-10	-19
-32	-42
-42	-51
-65	-74
-89	-98
-79	-89
-94	-104
-120	-130
-111	-120
-100	-111
-110	-121
-109	-119
-99	-110
-108	-117
-97	-107
-99	-107
-117	-128
-102	-112
-102	-112
-114	-124
-99	-108
-94	-104
-95	-105
-90	-101
-107	-117
-106	-116
-107	-117
-86	-96
-86	-96
-84	-93
-80	-90
-99	-108
-80	-90
-103	-112
-71	-80
-74	-83
-67	-76
-73	-82
-78	-88
-93	-103
-86	-96
-83	-92
-81	-91
-105	-115
-100	-110
-100	-109
-91	-101
-98	-109
-106	-117
-101	-111
-91	-102
-96	-106
-106	-116
-107	-117
-102	-111
-105	-115
-106	-115
-102	-113
-107	-117
-115	-126
-102	-112
-102	-113
-104	-115
-105	-115
-93	-103
-98	-107
-99	-110
-103	-112
-101	-110
-111	-121
-111	-121
-108	-117
-111	-121
-102	-112
-100	-109
-108	-119
-115	-125
-106	-116
-120	-130
-114	-122
-82	-91
-86	-96
-104	-114
-112	-122
-111	-120
-92	-101
-79	-89
-90	-99
-79	-87
-58	-66
-51	-60
-46	-55
-22	-29
-5	-12
2	-6
3	-5
-12	-20
-21	-30
-34	-42
-56	-65
-65	-75
-64	-72
-66	-75
-103	-113
-113	-123
-106	-116
-113	-123
-119	-129
-113	-123
-104	-113
-120	-129
-108	-118
-109	-119
-91	-101
-95	-103
-106	-116
-113	-122
-91	-101
-72	-80
12	7
93	87
169	168
336	337
376	375
290	289
38	22
-327	-344
-446	-464
-425	-440
-315	-327
-203	-213
-105	-115
-70	-79
-61	-69
-59	-67
-61	-70
-45	-53
-38	-47
-32	-40
-37	-44
-42	-51
-22	-30
-14	-22
-17	-25
-10	-17
-12	-20
-21	-27
-11	-19
-5	-12
19	12
20	13
3	-4
17	10
30	24
34	27
30	24
48	42
51	45
63	58
65	60
87	82
97	92
103	98
108	103
119	115
151	147
167	163
174	171
183	180
205	203
213	210
213	212
242	241
251	249
260	257
259	258
268	266
276	275
270	268
264	261
243	240
209	205
156	151
144	138
106	100
82	77
57	51
28	21
8	0
-1	-9
-14	-21
-21	-29
-28	-37
-45	-54
-30	-38
-49	-58
-50	-58
-40	-48
-51	-60
-54	-63
-52	-61
-49	-58
-51	-60
-54	-63
-52	-60
-49	-57
-35	-44
-30	-39
-32	-40
-28	-36
-35	-44
-36	-44
-36	-44
-8	-16
-25	-33
-21	-29
-23	-31
-31	-39
-19	-27
-22	-30
-28	-36
-33	-41
-30	-38
-35	-42
-28	-36
-29	-37
-36	-45
-40	-49
-43	-51
-34	-42
-37	-45
-40	-49
-49	-58
-28	-36
-32	-39
-41	-49
-45	-53
-37	-45
-43	-51
-50	-58
-38	-46
-28	-35
-37	-46
-44	-53
-38	-46
-32	-40
-47	-57
-54	-62
-48	-57
-27	-33
-33	-42
-43	-51
-43	-52
-28	-36
-43	-52
-30	-38
-26	-34
-23	-31
-34	-42
-33	-41
-31	-39
-31	-39
-37	-45
-43	-50
-27	-34
-32	-40
-28	-36
-39	-46
-39	-46
-35	-42
-34	-42
-40	-48
-24	-31
-20	-29
-33	-42
-37	-45
-26	-33
-23	-31
-28	-35
-41	-50
-38	-46
-15	-22
-35	-44
-23	-31
-29	-36
-16	-23
-10	-16
3	-4
26	20
40	34
55	49
45	40
53	48
80	75
55	50
38	31
27	20
14	8
2	-6
-4	-11
-16	-24
-29	-37
-50	-58
-47	-55
-42	-51
-57	-64
-48	-57
-52	-60
-46	-54
-42	-49
-53	-61
-34	-42
-32	-41
-35	-43
-22	-31
-34	-42
-9	-14
81	76
150	146
229	229
397	401
446	447
354	355
96	81
-279	-295
-401	-419
-371	-385
-265	-277
-145	-154
-47	-54
-16	-23
-10	-17
-1	-8
-2	-10
-20	-27
2	-4
30	24
31	24
19	12
24	17
29	22
33	27
33	27
30	23
40	34
44	39
44	39
50	44
53	46
66	61
67	62
64	59
66	62
91	85
79	72
103	99
113	108
111	107
134	129
126	123
140	136
170	167
172	168
174	171
211	209
224	223
229	227
233	231
266	265
284	282
276	275
286	286
296	297
317	318
322	323
316	316
327	326
315	315
280	280
258	257
221	219
193	190
156	152
122	118
99	94
73	67
56	50
26	20
27	21
22	15
-2	-9
1	-6
-1	-9
-8	-16
6	-1
-13	-21
-24	-32
-7	-14
-12	-20
-12	-19
-14	-21
-1	-8
-15	-22
-12	-19
-7	-15
-4	-11
-11	-19
-13	-20
-3	-10
13	7
-2	-9
-3	-9
8	1
0	-7
3	-4
6	-1
10	3
12	5
2	-6
2	-5
7	0
4	-3
5	-2
2	-5
15	8
9	1
-7	-14
-1	-8
4	-2
4	-2
-1	-8
-7	-14
-4	-11
9	3
0	-7
-11	-19
4	-2
5	-2
-7	-14
-3	-11
1	-6
-1	-9
-14	-21
-13	-20
1	-6
-6	-13
-5	-13
-3	-11
-10	-18
-5	-12
-2	-10
-6	-13
0	-7
7	-1
-7	-15
-7	-15
-5	-13
-6	-14
-10	-18
-6	-12
16	9
0	-8
-10	-18
-17	-25
8	0
4	-3
-1	-9
2	-5
-1	-9
2	-6
-2	-10
0	-8
-12	-20
-6	-14
-1	-9
0	-8
4	-3
-2	-10
-7	-15
-2	-9
-3	-11
-8	-15
6	-1
0	-7
1	-6
26	19
15	8
28	22
54	49
74	68
77	73
86	80
86	81
108	102
93	88
83	78
70	64
55	48
41	34
34	28
35	28
6	-2
-15	-23
-14	-22
-14	-22
-1	-8
-12	-20
-17	-24
-9	-16
-5	-12
-10	-17
-6	-12
4	-3
-9	-17
-21	-29
6	-1
8	2
73	69
160	157
217	218
361	364
455	458
390	392
233	224
-155	-169
-327	-343
-357	-371
-259	-269
-147	-154
-44	-51
0	-6
26	20
32	26
29	23
26	19
32	27
61	55
61	55
58	52
56	50
54	48
74	69
65	60
63	58
71	65
75	69
73	68
94	88
80	75
89	84
86	81
98	93
109	104
110	105
111	106
121	117
137	134
143	139
142	138
161	159
170	166
174	171
186	183
200	197
209	207
219	217
233	232
248	247
276	275
283	282
286	285
298	298
314	314
323	323
315	314
322	322
321	321
309	308
290	289
273	272
251	249
216	213
177	172
142	137
146	142
109	104
85	80
87	81
62	57
52	47
41	35
41	35
27	20
28	21
20	14
22	15
22	16
13	7
11	5
12	5
20	13
23	16
22	15
18	11
22	16
15	8
26	20
30	23
32	26
34	28
22	15
30	24
35	30
48	42
30	23
35	29
39	31
27	20
27	21
44	38
42	35
39	32
33	26
30	23
29	22
33	27
19	11
29	23
39	32
25	18
16	9
27	20
30	23
26	18
2	-4
18	12
23	16
28	21
17	10
21	15
28	22
28	21
12	4
11	4
24	17
27	20
26	19
26	19
21	14
31	24
14	6
33	26
39	31
29	22
21	15
18	12
26	18
31	25
25	17
19	12
40	34
29	22
28	20
26	20
36	30
19	11
27	21
36	30
45	40
37	31
29	23
32	26
35	29
29	24
23	17
30	23
44	38
37	30
53	46
62	56
77	71
100	96
98	94
112	107
124	120
128	123
108	103
98	94
92	87
66	60
66	61
53	47
56	51
30	24
16	10
15	8
16	9
19	12
10	3
11	4
13	5
21	14
11	5
22	15
25	18
22	15
14	7
18	11
60	56
128	124
195	193
291	293
450	455
461	463
388	387
91	79
-221	-236
-330	-345
-274	-286
-169	-178
-60	-67
0	-6
41	35
58	52
56	49
68	62
67	62
68	62
83	77
91	86
85	79
98	93
99	94
82	76
101	96
105	100
121	116
114	108
111	106
122	118
121	117
133	128
135	130
141	137
143	139
146	142
153	148
160	156
175	172
174	171
186	184
202	198
208	205
212	208
213	211
246	244
258	255
256	255
286	286
284	284
303	302
315	314
321	320
322	321
337	337
347	348
342	342
362	362
339	338
321	320
316	315
291	290
266	264
220	217
190	186
170	166
144	138
138	132
113	107
95	90
86	80
71	64
63	57
63	58
68	62
56	48
54	47
54	47
73	67
59	53
60	53
66	61
61	56
57	51
69	63
73	67
70	65
69	63
63	58
83	75
84	78
86	80
71	65
80	74
87	82
83	77
77	71
78	74
103	98
86	80
87	82
86	80
91	87
107	102
94	89
86	81
77	72
84	78
100	94
93	88
97	92
87	82
81	75
81	77
88	83
87	82
88	82
86	81
89	83
90	85
89	83
88	82
77	73
94	88
84	78
88	83
97	91
84	78
69	63
91	85
110	104
90	84
89	83
88	84
97	91
89	84
89	83
86	82
96	90
81	75
94	88
101	95
90	84
83	78
90	85
89	83
86	80
78	74
93	87
95	89
91	87
84	79
95	89
90	85
96	90
94	88
85	80
83	78
88	82
83	78
86	81
89	84
100	95
109	104
121	116
139	135
171	167
170	166
171	167
178	174
171	167
155	151
138	134
126	121
126	120
100	95
111	105
95	89
80	74
63	58
59	52
54	49
66	61
61	55
55	49
61	54
63	57
51	44
66	60
68	63
72	65
57	51
73	69
171	170
252	251
317	319
474	480
553	557
464	467
245	234
-149	-162
-309	-325
-310	-322
-164	-173
-60	-67
37	31
82	77
87	81
83	77
96	90
97	91
100	94
96	91
115	110
117	112
110	105
102	97
124	119
126	121
116	111
117	113
137	133
132	127
130	126
134	130
149	146
148	143
149	145
150	144
157	153
168	163
174	170
186	182
205	202
213	210
217	214
220	216
219	217
267	266
268	267
276	275
295	294
309	308
314	313
323	324
359	360
372	371
367	368
382	383
386	387
401	403
381	382
390	392
396	397
367	368
340	341
295	293
262	260
238	234
222	219
182	178
152	148
133	128
106	101
96	90
81	76
86	80
75	70
71	65
66	60
55	50
64	59
67	63
70	65
67	62
49	43
63	58
60	54
72	66
65	60
63	57
68	62
64	57
64	59
69	63
81	76
81	75
83	76
74	69
80	74
78	73
78	70
72	66
85	80
97	91
69	63
58	53
102	97
97	91
77	71
71	65
76	71
72	67
63	57
63	58
68	63
62	55
68	63
58	52
62	57
70	63
58	52
60	54
65	59
64	60
66	60
54	47
45	40
60	55
60	55
58	52
62	56
62	57
47	41
49	44
64	59
57	51
57	49
58	51
58	53
59	53
57	50
52	45
59	52
53	46
46	40
43	37
59	53
58	52
51	45
48	43
56	49
55	50
66	61
58	52
60	55
55	50
56	51
54	48
57	52
66	61
52	46
50	44
62	57
60	54
56	51
65	60
73	67
61	56
60	54
60	55
76	70
80	75
93	88
120	117
143	139
138	134
127	122
135	132
174	170
140	137
117	111
109	103
100	94
93	88
92	87
77	71
48	42
49	44
39	32
39	32
45	39
44	37
29	21
28	21
43	37
42	36
38	31
30	23
46	41
51	45
46	40
86	83
182	181
244	244
362	366
508	513
507	508
420	419
54	41
-243	-257
-318	-332
-253	-264
-159	-168
-41	-47
49	43
71	66
77	71
73	67
84	78
85	80
85	79
91	86
102	97
93	87
90	85
104	100
117	112
111	106
118	113
125	120
124	120
116	111
125	120
127	124
136	133
144	141
145	142
142	138
157	154
173	170
173	170
181	180
189	187
201	199
203	201
229	227
241	240
256	255
256	255
275	275
296	296
312	312
324	325
338	339
355	356
363	364
358	360
384	385
398	400
400	402
391	392
386	388
365	366
362	362
316	316
283	281
252	249
214	211
178	175
159	155
134	130
110	105
102	98
78	73
74	68
68	62
56	50
56	50
54	48
49	42
40	34
51	45
43	37
48	41
39	33
41	34
44	37
59	52
44	36
59	53
59	52
50	43
55	50
56	50
55	49
49	43
66	60
63	57
66	61
63	57
57	51
69	64
81	76
69	63
52	46
59	54
73	67
68	62
63	59
65	60
63	57
60	54
61	55
63	58
65	60
56	51
49	43
58	52
62	56
55	49
63	57
49	43
61	56
55	49
53	48
60	54
56	50
60	54
55	49
65	60
61	56
58	52
66	61
67	62
68	63
62	56
60	56
69	64
73	67
72	67
71	66
62	57
68	63
80	74
63	58
70	65
75	70
75	70
71	66
71	67
84	79
75	69
72	66
77	72
99	95
89	84
91	86
79	74
91	86
93	88
85	81
91	87
93	88
90	85
98	94
98	93
99	95
96	92
95	91
108	104
117	113
117	112
128	125
154	151
182	179
179	175
147	142
149	146
191	189
195	193
176	173
167	164
161	157
146	141
135	131
133	128
127	122
114	109
101	96
109	105
105	100
103	98
102	97
103	99
106	102
101	96
100	97
117	113
125	121
118	113
107	101
113	109
144	141
232	231
288	287
370	374
530	537
563	568
509	511
202	191
-132	-144
-243	-255
-198	-208
-89	-96
10	5
106	103
136	133
155	153
163	159
160	156
144	141
177	173
186	183
181	178
181	179
185	181
194	191
193	190
192	190
191	189
197	195
199	197
207	204
209	206
221	219
218	216
216	214
225	223
243	241
252	251
240	238
243	242
263	262
272	271
277	276
287	287
306	306
310	310
323	323
334	335
351	352
360	362
373	374
391	394
406	408
412	414
425	427
428	431
455	459
452	455
442	445
436	438
447	451
438	441
411	412
390	391
360	360
312	311
286	286
269	267
238	235
204	201
181	178
167	163
155	151
145	140
138	133
129	126
129	125
117	111
104	100
113	108
119	114
106	101
107	103
103	98
106	100
100	94
113	109
113	108
117	113
111	105
103	98
115	110
118	113
119	114
105	101
125	120
125	121
118	114
110	105
117	112
110	105
112	106
114	109
117	112
119	114
103	98
110	105
106	101
110	105
106	100
98	94
102	97
104	98
94	89
89	83
96	91
92	86
80	75
85	78
84	78
78	72
82	76
82	76
80	75
88	82
82	77
74	68
67	62
76	70
74	68
67	62
80	75
80	74
71	65
64	58
61	56
73	67
65	60
68	63
78	73
70	65
60	54
64	59
63	58
66	60
60	55
58	53
58	52
62	56
56	50
54	47
53	47
58	52
47	41
50	44
49	43
55	50
41	35
48	42
58	53
59	53
66	61
70	64
110	106
113	107
96	90
87	82
109	105
118	113
96	91
84	78
75	69
64	59
47	41
42	36
35	28
18	10
-5	-12
-4	-11
0	-8
-7	-15
-10	-17
12	4
-3	-10
-3	-11
-12	-20
-9	-16
-8	-15
0	-7
-7	-14
-18	-25
2	-5
58	53
127	123
170	168
314	317
454	455
386	386
260	254
-117	-132
-339	-354
-364	-377
-279	-290
-174	-183
-72	-79
-28	-35
2	-5
15	9
17	9
18	11
23	18
34	28
37	31
31	24
38	31
46	39
47	41
38	32
40	34
63	59
62	56
63	57
61	55
72	66
72	65
64	58
72	66
84	78
93	88
88	83
100	96
104	100
109	104
112	107
123	118
133	129
151	148
164	160
166	162
182	179
199	196
200	198
211	209
229	227
235	233
242	240
259	257
271	270
281	280
283	282
271	269
262	260
254	252
240	237
218	216
192	189
159	155
120	116
96	92
84	78
55	49
28	22
18	12
8	1
-4	-11
-27	-35
-11	-18
-19	-27
-28	-36
-39	-46
-38	-46
-36	-44
-26	-34
-42	-49
-36	-44
-33	-41
-43	-51
-31	-39
-36	-44
-30	-37
-26	-33
-31	-39
-38	-46
-26	-34
-24	-32
-31	-39
-33	-41
-21	-28
-18	-25
-25	-32
-26	-34
-22	-30
-15	-22
-33	-40
-27	-33
-7	-14
-22	-30
-25	-32
-26	-33
-18	-25
-24	-32
-38	-45
-28	-36
-22	-29
-28	-36
-45	-53
-27	-34
-23	-30
-27	-36
-40	-49
-36	-43
-32	-40
-30	-38
-36	-44
-38	-46
-30	-37
-31	-39
-31	-39
-37	-43
-32	-39
-29	-36
-35	-43
-38	-44
-34	-42
-38	-46
-28	-36
-32	-40
-37	-45
-30	-38
-35	-43
-35	-43
-33	-41
-35	-43
-29	-37
-33	-40
-30	-38
-23	-30
-43	-50
-40	-46
-19	-27
-24	-32
-30	-37
-39	-47
-23	-31
-32	-39
-35	-44
-43	-51
-32	-40
-31	-39
-38	-46
-37	-44
-31	-39
-35	-43
-31	-39
-25	-33
-16	-24
-18	-26
-16	-24
-7	-14
13	6
28	22
48	42
35	28
43	37
46	40
52	46
48	43
28	22
18	13
11	4
2	-4
0	-7
-2	-9
-18	-26
-42	-50
-44	-52
-53	-61
-56	-65
-63	-70
-28	-35
-38	-47
-42	-49
-46	-54
-41	-49
-39	-48
-47	-55
-43	-51
-32	-38
-37	-45
11	7
101	98
169	167
290	292
423	426
382	382
315	310
-112	-128
-371	-388
-440	-455
-347	-362
-239	-249
-127	-135
-58	-65
-28	-35
-23	-29
-20	-26
-15	-22
-5	-12
-4	-12
-6	-13
5	-1
9	3
14	7
14	7
17	11
17	11
16	9
31	25
33	28
29	23
22	15
39	33
47	41
50	44
52	45
55	49
67	63
76	71
84	78
77	72
91	87
110	106
119	116
127	124
142	139
162	160
169	166
185	183
203	201
220	217
239	237
234	232
250	250
273	273
277	276
279	279
297	296
304	303
300	299
281	280
257	256
248	247
207	204
165	161
130	126
102	97
68	63
32	25
28	21
11	3
-15	-24
-33	-41
-34	-42
-38	-47
-45	-54
-50	-59
-55	-63
-47	-55
-51	-60
-64	-72
-60	-67
-63	-70
-61	-69
-55	-64
-60	-68
-58	-66
-64	-71
-62	-70
-53	-60
-47	-56
-55	-63
-54	-62
-52	-60
-40	-48
-50	-58
-49	-56
-42	-49
-39	-46
-38	-45
-40	-48
-36	-44
-36	-44
-38	-46
-32	-39
-30	-37
-31	-38
-39	-47
-45	-52
-48	-57
-36	-44
-31	-38
-43	-51
-33	-41
-47	-55
-55	-62
-41	-49
-45	-53
-40	-48
-48	-55
-50	-59
-48	-56
-46	-54
-47	-54
-59	-67
-53	-61
-50	-59
-49	-58
-62	-70
-55	-63
-63	-71
-52	-60
-59	-67
-58	-65
-50	-58
-51	-59
-62	-70
-55	-63
-55	-62
-54	-62
-59	-67
-57	-65
-54	-62
-59	-66
-53	-62
-65	-72
-51	-58
-48	-56
-54	-63
-57	-65
-54	-62
-55	-64
-60	-67
-64	-72
-65	-73
-70	-78
-57	-65
-59	-67
-57	-65
-62	-70
-70	-79
-66	-74
-65	-72
-70	-78
-70	-78
-66	-74
-63	-70
-78	-87
-63	-70
-67	-75
-62	-70
-64	-72
-81	-91
-51	-60
-50	-59
-45	-54
-30	-37
-3	-9
11	4
-11	-18
-29	-37
-7	-13
21	14
3	-5
-21	-29
-34	-42
-43	-52
-53	-62
-64	-72
-58	-66
-74	-83
-90	-99
-102	-111
-109	-118
-88	-97
-97	-107
-105	-114
-98	-108
-97	-106
-92	-100
-92	-101
-93	-101
-85	-94
-96	-105
-86	-94
-78	-86
-17	-23
73	68
117	115
262	265
388	390
324	323
226	218
-194	-211
-430	-448
-474	-491
-388	-402
-277	-288
-156	-164
-89	-98
-75	-84
-64	-71
-61	-68
-50	-58
-52	-59
-44	-51
-39	-46
-47	-55
-33	-40
-27	-34
-23	-30
-27	-35
-34	-42
-26	-33
-18	-26
-22	-29
-19	-27
-11	-18
2	-5
7	0
0	-7
5	-1
28	23
28	21
34	28
47	41
61	56
62	57
68	64
89	84
98	94
118	114
133	129
145	141
166	164
185	182
184	181
195	191
231	229
238	238
247	245
259	259
275	274
272	272
276	275
275	275
269	269
246	245
213	211
176	173
155	151
101	95
70	64
41	35
23	16
-10	-17
-34	-42
-47	-54
-45	-53
-64	-72
-76	-84
-74	-83
-79	-87
-90	-99
-92	-100
-92	-100
-72	-81
-83	-92
-93	-101
-85	-93
-82	-90
-88	-97
-94	-103
-89	-97
-90	-99
-92	-100
-80	-90
-80	-88
-74	-83
-78	-87
-85	-94
-74	-82
-73	-82
-77	-86
-81	-90
-72	-80
-65	-73
-70	-79
-71	-80
-63	-71
-52	-60
-64	-72
-65	-74
-68	-76
-64	-72
-62	-71
-70	-78
-66	-74
-62	-70
-69	-78
-85	-95
-65	-73
-68	-77
-72	-80
-76	-85
-76	-85
-77	-87
-76	-85
-74	-84
-76	-85
-76	-85
-78	-88
-80	-88
-73	-81
-73	-83
-74	-83
-81	-90
-73	-82
-66	-75
-74	-83
-77	-86
-71	-79
-69	-78
-72	-81
-75	-84
-70	-80
-71	-79
-73	-83
-66	-74
-63	-71
-63	-71
-66	-76
-68	-77
-65	-73
-67	-76
-66	-75
-67	-76
-64	-73
-62	-70
-65	-73
-62	-69
-58	-66
-50	-58
-62	-70
-68	-77
-62	-70
-54	-62
-59	-67
-55	-63
-55	-63
-57	-65
-68	-77
-62	-69
-59	-66
-44	-52
-51	-59
-57	-65
-47	-55
-44	-52
-51	-60
-51	-60
-55	-63
-55	-61
-42	-49
-45	-52
-39	-46
-39	-47
-43	-51
-41	-48
-40	-48
-37	-44
-31	-39
-26	-33
-17	-24
16	10
31	26
37	32
33	27
24	18
24	19
45	40
39	33
27	20
7	0
4	-2
0	-6
-3	-10
-14	-20
-19	-26
-40	-48
-54	-62
-59	-66
-49	-57
-52	-60
-44	-52
-51	-59
-50	-58
-42	-49
-30	-38
-48	-56
-44	-52
-40	-47
-25	-33
-42	-50
-12	-17
85	82
151	148
223	224
372	376
419	419
348	348
52	38
-311	-326
-408	-424
-358	-371
-263	-274
-152	-161
-53	-61
-17	-24
-9	-17
-7	-14
6	-1
14	7
8	2
14	8
20	13
29	23
22	16
30	23
42	35
42	37
41	36
48	42
49	44
52	46
48	42
54	48
59	54
70	65
66	61
77	73
90	86
94	89
90	86
98	94
107	103
126	122
131	127
142	139
160	157
172	169
180	176
182	180
204	202
224	222
231	230
251	250
270	270
288	288
287	287
303	303
304	305
326	326
319	319
310	310
305	305
278	277
247	245
217	214
189	184
144	140
111	106
86	80
69	63
46	39
30	24
15	8
6	-1
-5	-13
-18	-26
-17	-25
-9	-17
-13	-20
-29	-36
-29	-36
-15	-23
-22	-30
-23	-31
-21	-29
-18	-26
-15	-23
-22	-29
-22	-29
-26	-33
-22	-30
-24	-31
-24	-32
-22	-29
-18	-26
-28	-36
-14	-22
-11	-19
-15	-22
-20	-28
-9	-17
-13	-21
-14	-21
-19	-26
-19	-25
-14	-21
-12	-19
-15	-22
-12	-19
-14	-22
-23	-31
-24	-32
-18	-25
-15	-22
-18	-26
-25	-33
-25	-33
-28	-35
-30	-38
-32	-40
-30	-37
-21	-28
-20	-27
-33	-42
-43	-51
-24	-32
-29	-37
-39	-47
-38	-45
-24	-31
-33	-40
-48	-55
-43	-50
-28	-35
-25	-32
-35	-43
-48	-56
-36	-44
-37	-45
-36	-43
-42	-50
-46	-54
-47	-54
-46	-54
-42	-49
-41	-49
-51	-59
-53	-61
-47	-54
-51	-58
-43	-50
-54	-62
-51	-60
-48	-55
-43	-51
-49	-57
-45	-53
-40	-48
-50	-59
-55	-63
-49	-56
-47	-54
-55	-63
-54	-62
-46	-54
-39	-47
-38	-45
-38	-46
-39	-46
-35	-43
-43	-49
-48	-55
-42	-49
-32	-39
-35	-42
-32	-39
7	1
12	6
26	19
24	19
17	10
25	19
38	33
42	36
19	13
10	3
-2	-9
-13	-21
-17	-23
1	-7
-25	-33
-48	-57
-58	-65
-58	-66
-60	-67
-64	-71
-62	-70
-59	-66
-60	-68
-73	-81
-61	-68
-53	-61
-54	-62
-57	-65
-41	-48
-49	-57
-45	-54
-15	-20
93	89
137	133
232	233
390	394
382	382
317	313
-53	-68
-340	-357
-403	-417
-329	-342
-237	-247
-139	-147
-70	-78
-32	-39
-20	-27
-23	-30
-17	-24
-3	-10
6	0
0	-6
14	8
9	3
14	7
12	6
20	14
22	17
21	15
36	31
30	25
39	34
46	40
41	36
45	41
55	50
56	51
69	64
72	68
83	79
86	81
86	81
105	102
114	110
116	112
118	114
130	127
155	152
164	161
173	170
191	189
205	204
215	213
222	221
239	237
255	255
258	258
261	260
274	273
285	284
280	280
265	264
253	252
240	237
211	209
181	176
157	153
129	125
102	97
66	62
50	45
34	29
35	28
14	8
1	-5
0	-7
-9	-16
-11	-18
-16	-23
-15	-22
-24	-30
-29	-36
-22	-29
-18	-25
-18	-25
-21	-28
-17	-24
-8	-15
-8	-16
-24	-31
-15	-22
-5	-12
-5	-12
-5	-12
4	-3
7	1
0	-6
0	-7
8	1
7	1
7	0
8	1
13	6
20	14
20	14
13	6
11	5
22	16
19	12
6	-1
7	0
10	3
-1	-7
12	5
6	0
15	9
11	4
5	-2
12	6
14	7
8	1
2	-4
11	5
15	9
9	3
6	-1
10	3
9	3
13	6
10	4
14	8
16	9
15	9
13	7
21	14
21	16
18	12
20	14
24	17
22	15
26	20
20	13
30	24
33	27
21	14
14	8
25	19
28	21
21	14
21	14
26	19
25	18
41	35
35	30
33	27
34	28
36	30
34	28
35	29
38	32
37	32
32	26
39	32
42	37
43	37
36	31
37	31
39	33
43	37
41	35
40	34
43	37
39	33
35	29
42	36
44	38
40	34
40	34
45	39
50	42
39	32
31	25
43	37
46	40
44	38
40	34
43	38
51	46
56	50
67	63
90	85
117	113
117	113
97	92
96	92
113	110
131	127
109	104
93	89
82	77
67	62
57	52
58	52
63	57
39	32
15	9
15	9
25	18
21	14
21	14
27	20
28	22
32	25
24	18
28	22
23	17
26	20
34	29
33	28
42	37
105	103
191	190
255	256
389	394
506	511
448	449
357	351
-63	-77
-304	-320
-355	-368
-261	-272
-146	-155
-40	-47
25	19
58	53
64	59
61	55
68	63
72	67
82	77
82	77
96	91
93	88
99	94
98	94
99	95
105	101
113	108
116	111
113	108
122	119
122	119
122	118
128	124
140	137
150	146
148	145
153	150
167	164
177	174
183	181
186	184
202	201
214	213
220	218
230	228
249	248
269	269
274	273
288	288
302	302
327	329
339	339
348	349
367	369
374	377
381	383
390	392
396	398
393	393
383	384
365	365
349	348
319	319
281	280
244	242
221	219
192	190
160	156
129	125
115	112
99	94
85	79
73	68
77	71
70	64
64	59
55	49
49	44
58	52
52	46
52	46
55	49
61	56
46	40
54	48
53	47
57	52
59	53
58	52
57	52
62	57
51	46
57	51
63	58
71	65
63	58
63	58
67	63
68	63
65	60
64	59
73	68
86	81
74	69
64	60
74	69
77	71
67	62
73	67
75	69
72	66
57	51
57	52
65	60
64	59
58	53
58	53
59	53
63	58
54	48
52	46
57	51
60	54
53	48
56	51
63	57
55	49
52	46
52	46
61	56
61	55
51	45
51	46
59	54
55	50
54	48
49	43
56	51
59	54
53	48
48	43
54	48
53	47
51	45
48	42
56	49
55	49
53	47
49	44
51	46
53	48
46	40
51	45
49	43
63	57
53	46
46	40
56	50
56	50
53	47
49	44
53	48
58	53
49	43
47	41
46	41
49	43
52	46
45	39
54	49
56	50
47	41
44	38
51	46
56	49
47	41
45	39
50	45
55	49
44	38
47	41
54	48
52	46
42	36
38	33
57	52
63	59
75	71
94	90
122	119
129	125
96	92
104	100
123	119
132	129
114	110
104	100
94	90
81	75
69	63
63	60
71	65
40	34
28	22
25	20
30	24
31	25
29	23
28	23
30	24
31	25
26	20
26	21
31	26
35	29
28	22
32	26
49	44
125	122
202	201
259	260
396	401
509	513
424	426
309	301
-118	-132
-311	-326
-338	-351
-237	-248
-127	-135
-16	-22
40	34
58	52
61	56
69	63
63	58
68	63
74	69
82	77
85	80
90	86
89	83
92	87
89	83
99	93
112	107
111	106
103	98
108	102
112	107
119	114
116	112
127	123
137	133
140	136
136	132
143	139
157	154
173	170
175	172
181	178
193	191
206	204
212	209
223	222
243	242
256	255
274	274
275	275
304	304
313	312
320	321
334	335
351	351
358	359
355	356
362	363
372	373
365	367
341	342
317	317
289	289
253	252
210	208
176	174
154	151
128	125
95	90
77	71
68	62
57	51
38	32
34	28
26	19
21	14
10	3
11	4
18	12
16	8
4	-3
6	-1
14	7
10	2
8	1
10	4
22	15
11	4
5	-2
7	1
17	10
17	10
8	2
16	10
23	17
22	16
13	6
15	9
26	19
23	16
19	12
22	15
29	22
29	23
27	21
27	20
28	22
24	18
23	17
24	18
26	20
23	17
14	8
18	11
18	12
15	8
6	-1
12	6
14	7
9	2
5	-1
5	-2
11	4
13	6
4	-2
6	-1
6	0
7	-1
-3	-10
-2	-9
12	5
13	6
1	-6
1	-6
9	2
5	-3
5	-3
4	-3
12	5
9	2
-4	-12
-2	-9
2	-4
6	-1
4	-3
-1	-8
10	2
8	0
-8	-15
-1	-8
11	5
12	5
7	0
0	-7
9	2
3	-4
-4	-12
1	-6
8	1
4	-3
-3	-10
1	-6
9	2
5	-3
-7	-14
0	-6
5	-1
7	0
5	-2
3	-4
4	-4
6	-1
1	-5
3	-5
4	-3
4	-3
0	-7
1	-7
2	-5
1	-5
2	-5
5	-1
8	1
3	-4
-5	-12
1	-5
14	7
20	13
6	-1
30	25
55	49
71	66
66	61
61	55
63	58
71	66
69	63
61	55
57	51
40	33
32	25
21	14
21	14
16	7
-10	-19
-17	-24
-17	-25
-15	-23
-26	-34
-24	-31
-21	-28
-20	-27
-26	-34
-23	-30
-16	-24
-26	-33
-23	-30
-15	-23
-16	-25
-18	-25
37	32
134	131
186	186
323	326
445	447
393	394
288	281
-124	-138
-344	-360
-364	-378
-279	-291
-180	-189
-80	-88
-30	-37
0	-7
-1	-8
5	-2
15	9
22	15
20	13
21	15
33	27
43	37
39	34
38	33
40	34
41	36
41	35
50	44
55	49
56	49
61	55
55	50
63	57
74	69
76	70
69	63
81	76
96	91
100	95
96	91
108	104
126	122
132	127
130	126
144	140
164	161
177	173
184	182
196	194
214	211
222	220
236	234
250	249
262	260
269	267
270	269
278	277
287	286
283	282
274	273
261	260
250	248
225	223
194	191
164	161
136	132
102	96
77	72
62	56
48	42
28	21
14	7
7	0
7	0
-3	-11
-12	-19
-10	-17
-11	-18
-16	-24
-25	-32
-23	-30
-10	-17
-18	-25
-19	-27
-12	-19
-10	-17
-19	-27
-19	-26
-11	-18
-4	-10
-2	-9
-11	-18
-7	-14
-7	-13
-4	-9
3	-4
9	2
8	1
2	-4
0	-7
4	-3
8	1
2	-5
-4	-9
5	-2
11	3
-2	-9
-3	-10
3	-4
5	-1
2	-5
-8	-15
-3	-10
-3	-10
-6	-12
-7	-15
-3	-10
-6	-13
-8	-15
-13	-20
-8	-16
-5	-12
-14	-21
-17	-23
-9	-15
-6	-13
-11	-18
-14	-21
-15	-22
-8	-15
-5	-13
-14	-21
-14	-21
-5	-13
-15	-22
-14	-20
-11	-19
-12	-19
-14	-22
-16	-23
-9	-17
-6	-13
-13	-21
-19	-27
-11	-18
-8	-16
-17	-24
-18	-26
-12	-19
-9	-16
-13	-20
-14	-21
-8	-16
-11	-18
-20	-28
-25	-32
-17	-25
-5	-12
-12	-20
-11	-19
-9	-17
-5	-12
-14	-20
-15	-22
-12	-20
-12	-20
-15	-23
-15	-22
-9	-16
-5	-13
-10	-19
-14	-21
-4	-11
-3	-11
0	-8
6	-1
19	13
36	30
47	41
68	63
74	68
62	56
62	56
69	64
78	71
66	60
40	34
31	25
32	25
25	18
8	1
6	-2
-15	-22
-17	-26
-25	-33
-24	-32
-27	-34
-25	-31
-26	-33
-24	-31
-17	-24
-19	-26
-22	-29
-17	-24
-12	-19
-14	-21
-14	-21
-4	-9
82	79
172	169
224	224
377	382
459	462
379	381
181	170
-231	-245
-375	-391
-378	-391
-278	-289
-157	-165
-55	-61
2	-4
0	-7
7	1
18	12
26	20
32	25
26	20
38	31
45	39
41	36
43	37
51	46
57	52
54	49
56	50
62	56
68	63
68	63
70	65
83	78
87	82
83	79
91	87
98	94
103	100
112	109
116	113
126	123
144	141
145	143
156	153
164	162
184	182
191	189
203	201
220	219
240	240
245	245
264	265
280	280
290	290
296	296
309	310
323	324
325	326
319	319
322	323
317	318
303	303
274	272
243	242
217	215
190	187
158	154
129	125
113	108
95	90
67	61
49	43
51	44
39	32
24	17
17	10
25	19
23	17
15	8
16	9
19	13
19	13
15	8
13	7
20	12
21	15
19	13
25	19
34	29
40	34
30	24
34	28
41	35
38	32
35	29
39	33
49	43
56	51
52	46
57	52
60	54
63	58
53	49
63	57
66	61
69	64
65	60
63	58
75	70
70	65
64	59
65	60
73	68
75	70
69	63
71	66
77	72
79	74
72	67
71	66
81	76
87	82
81	76
81	76
87	82
89	84
89	84
94	89
96	91
102	99
100	95
95	90
111	107
113	108
107	103
113	108
113	109
109	105
108	104
112	108
123	119
121	117
121	116
126	121
129	125
132	129
131	127
131	128
139	135
139	136
139	135
140	137
146	142
145	141
141	136
147	144
154	151
159	156
148	144
159	156
168	165
165	161
166	163
167	164
172	169
181	178
178	176
180	178
181	179
186	184
187	184
192	191
197	195
200	197
197	194
201	198
203	202
206	204
205	203
202	200
208	207
213	211
214	212
217	217
228	227
237	235
251	251
283	283
308	309
308	309
289	288
292	292
312	309
315	315
295	294
282	281
278	277
266	265
254	253
255	254
262	261
236	235
219	217
217	215
224	222
223	221
217	216
221	219
226	225
230	228
226	224
232	231
237	236
237	236
235	234
238	237
279	281
372	374
418	420
511	518
675	684
679	684
603	608
268	259
-40	-51
-132	-142
-80	-87
25	20
143	141
224	223
243	242
254	254
258	257
260	259
260	258
264	262
266	265
270	270
276	275
276	276
281	280
282	281
278	278
282	282
284	284
283	282
280	280
285	285
288	287
295	295
296	295
303	303
313	314
314	314
310	311
318	317
332	333
333	333
335	335
350	351
364	364
373	373
376	377
387	389
404	407
413	415
420	423
443	446
459	462
465	468
470	472
474	477
493	497
502	507
496	500
501	505
498	502
487	490
460	463
430	432
404	405
365	365
322	322
288	287
265	263
235	231
206	202
191	188
183	179
162	158
143	139
137	133
130	126
127	123
114	109
109	104
115	110
108	103
104	99
100	94
97	92
97	92
90	84
90	85
91	86
86	81
81	75
81	76
83	77
75	69
71	65
75	70
76	71
72	66
67	62
65	60
69	64
63	57
51	44
50	45
55	49
52	45
40	33
42	36
46	40
39	32
29	22
30	23
28	22
30	23
16	10
12	5
17	10
10	3
-6	-13
-7	-15
0	-7
-11	-19
-20	-27
-21	-28
-25	-32
-29	-37
-37	-46
-38	-46
-41	-49
-48	-57
-53	-60
-52	-60
-50	-58
-59	-67
-66	-74
-66	-74
-65	-74
-74	-83
-75	-84
-73	-81
-76	-85
-83	-92
-87	-96
-86	-96
-83	-92
-95	-104
-97	-105
-100	-108
-101	-110
-104	-114
-114	-124
-112	-122
-112	-122
-120	-129
-128	-137
-129	-139
-123	-132
-133	-144
-144	-154
-143	-154
-144	-155
-151	-162
-155	-166
-154	-165
-154	-165
-160	-172
-171	-182
-168	-179
-168	-178
-176	-187
-178	-188
-180	-190
-176	-186
-180	-191
-188	-199
-186	-197
-179	-191
-188	-200
-189	-201
-181	-192
-169	-180
-158	-169
-134	-145
-127	-137
-135	-146
-154	-165
-152	-163
-134	-145
-130	-140
-155	-167
-180	-192
-182	-193
-191	-203
-206	-219
-211	-223
-213	-226
-225	-237
-244	-257
-250	-262
-250	-262
-244	-257
-247	-260
-257	-270
-258	-271
-254	-266
-256	-268
-255	-268
-257	-271
-257	-270
-260	-273
-257	-268
-189	-198
-102	-110
-57	-64
67	64
196	193
144	139
48	35
-365	-385
-587	-608
-617	-637
-534	-551
-432	-447
-319	-332
-248	-259
-240	-252
-242	-254
-235	-247
-224	-237
-223	-235
-221	-233
-216	-228
-209	-221
-209	-221
-204	-215
-203	-214
-200	-212
-195	-207
-197	-208
-190	-201
-186	-197
-189	-200
-185	-196
-176	-187
-163	-175
-172	-184
-159	-170
-153	-164
-142	-153
-142	-153
-140	-150
-126	-135
-109	-119
-108	-118
-101	-110
-81	-90
-71	-79
-65	-73
-50	-58
-30	-37
-16	-24
1	-6
20	13
33	27
48	43
54	49
62	57
71	66
85	80
89	84
85	79
83	77
71	65
47	39
17	9
-15	-24
-46	-56
-81	-91
-117	-127
-137	-148
-150	-161
-180	-192
-195	-207
-211	-223
-216	-228
-226	-239
-235	-247
-233	-245
-234	-247
-237	-250
-243	-255
-242	-255
-240	-253
-246	-258
-242	-254
-239	-251
-239	-252
-244	-257
-242	-255
-238	-251
-235	-247
-239	-252
-243	-255
-230	-243
-225	-237
-227	-240
-227	-239
-219	-231
-219	-230
-223	-235
-217	-229
-215	-227
-208	-220
-216	-227
-205	-217
-201	-213
-202	-214
-207	-218
-207	-219
-198	-209
-195	-207
-200	-212
-202	-213
-197	-208
-194	-206
-203	-215
-207	-219
-200	-211
-195	-206
-199	-210
-205	-217
-207	-219
-195	-207
-199	-211
-199	-210
-192	-201
-187	-197
-193	-204
-200	-211
-194	-205
-185	-196
-187	-197
-190	-200
-193	-203
-183	-193
-186	-196
-184	-194
-181	-191
-183	-194
-190	-200
-184	-195
-180	-191
-174	-185
-181	-192
-179	-190
-174	-184
-172	-183
-176	-187
-172	-183
-168	-178
-163	-173
-172	-183
-175	-186
-170	-181
-167	-177
-168	-178
-158	-168
-156	-166
-162	-173
-171	-182
-163	-173
-153	-164
-153	-163
-152	-163
-154	-164
-147	-158
-148	-158
-153	-163
-150	-161
-146	-156
-143	-154
-149	-159
-144	-154
-136	-145
-123	-132
-106	-114
-94	-103
-70	-78
-68	-76
-79	-87
-77	-85
-65	-73
-59	-67
-75	-84
-87	-96
-84	-93
-92	-102
-113	-122
-110	-119
-109	-119
-141	-152
-150	-160
-148	-157
-145	-155
-142	-153
-144	-155
-149	-160
-139	-149
-134	-145
-136	-146
-137	-148
-131	-141
-127	-137
-129	-138
-133	-143
-119	-128
-48	-55
23	17
66	64
226	227
338	336
275	274
131	121
-251	-267
-437	-455
-445	-461
-364	-378
-254	-265
-160	-171
-121	-130
-89	-98
-75	-83
-67	-75
-61	-70
-59	-67
-54	-62
-55	-64
-53	-61
-48	-56
-40	-47
-33	-41
-35	-44
-34	-42
-27	-35
-16	-24
-23	-30
-17	-24
-4	-12
-5	-12
-1	-9
5	-1
19	13
24	19
24	17
34	28
48	42
52	46
56	50
63	57
79	74
94	90
102	100
119	114
132	128
151	147
161	158
176	173
194	192
205	203
205	203
227	226
234	232
243	242
245	242
252	251
260	259
253	251
233	231
211	209
190	187
167	163
130	127
110	105
83	77
63	58
40	34
24	17
14	6
4	-5
-4	-12
-10	-19
-11	-19
-15	-22
-24	-31
-20	-27
-19	-26
-16	-23
-16	-25
-22	-30
-15	-22
-18	-26
-17	-24
-10	-18
4	-3
0	-7
-4	-11
-2	-9
2	-5
10	3
8	1
10	3
11	5
14	8
14	8
18	12
27	21
25	19
17	11
21	15
33	27
31	25
26	20
26	20
23	17
26	20
22	16
26	20
36	29
27	21
19	13
17	11
23	17
25	19
24	17
26	20
32	26
26	20
17	10
20	13
26	19
27	21
21	14
25	17
29	23
25	19
26	19
23	17
31	25
32	25
23	17
25	19
34	28
35	30
27	21
30	24
36	30
37	31
31	26
39	32
37	31
34	27
28	22
37	31
36	30
35	29
29	23
36	31
43	38
42	35
27	21
34	28
46	40
36	29
34	28
38	33
49	43
49	43
46	40
47	41
47	41
46	40
44	38
46	40
57	52
50	43
45	39
54	48
62	57
70	65
90	86
112	108
126	122
121	117
104	100
116	112
138	134
130	125
110	106
94	89
88	83
80	75
70	64
70	65
61	55
37	31
27	20
32	26
31	25
39	32
32	26
29	23
30	23
31	25
25	19
34	28
41	35
38	32
37	30
38	32
83	80
177	175
223	223
334	338
488	493
469	470
394	391
39	27
-247	-261
-336	-351
-280	-292
-165	-174
-48	-55
26	20
45	38
50	44
62	57
63	58
62	56
72	66
82	76
84	79
82	75
82	77
93	88
91	85
91	87
101	95
101	95
107	102
105	101
112	107
123	119
122	117
118	115
129	126
136	133
140	137
142	140
157	154
165	160
169	166
176	173
190	187
200	197
212	210
218	217
237	235
255	254
269	266
279	279
294	294
313	313
320	320
333	333
350	350
358	358
355	356
353	353
364	364
359	359
348	349
321	321
297	296
269	267
235	232
192	189
163	159
145	140
115	109
90	84
72	66
66	60
56	50
46	40
46	39
43	37
38	31
27	20
23	17
28	22
27	20
26	20
30	24
36	30
33	27
25	18
28	22
32	25
29	23
31	24
33	26
35	29
36	30
32	25
40	33
44	38
43	37
40	34
41	35
49	43
41	34
39	33
41	36
48	42
48	41
43	38
46	41
53	46
43	37
38	32
37	31
40	34
37	30
33	27
37	31
42	36
35	28
26	20
31	24
32	26
28	22
26	19
27	21
29	22
24	17
21	15
27	21
34	28
30	23
21	14
27	20
29	22
24	17
24	17
25	18
30	23
19	12
23	16
25	19
29	22
27	20
23	16
23	17
28	22
16	10
24	17
21	14
26	20
26	19
20	14
26	19
27	21
23	16
20	13
23	16
18	11
23	16
17	10
22	15
26	20
22	16
22	15
25	19
25	19
19	12
17	10
20	14
22	15
21	15
21	15
26	19
25	18
22	16
17	10
22	16
28	22
18	11
21	14
26	20
32	26
29	23
19	13
20	14
27	21
24	18
24	18
32	26
46	40
54	49
72	68
93	89
105	100
75	70
72	67
94	90
109	105
88	82
68	63
54	48
51	45
41	35
40	34
43	37
23	17
-1	-9
-7	-13
-3	-10
-2	-9
-5	-13
-4	-11
-3	-10
7	-1
3	-4
-1	-9
4	-3
14	7
10	2
6	0
31	26
120	116
183	180
240	241
403	408
482	484
384	386
184	172
-212	-226
-352	-368
-337	-351
-244	-255
-126	-134
-27	-34
11	5
20	13
33	27
39	32
32	26
38	32
43	38
56	50
49	43
50	44
55	50
71	66
62	57
65	60
68	63
73	68
72	68
78	73
87	83
98	93
97	92
95	91
110	105
113	108
110	106
117	113
129	125
143	139
146	143
155	152
173	170
179	175
191	188
205	203
227	225
244	243
249	247
265	264
285	284
300	300
308	308
316	316
333	334
345	347
343	344
349	351
347	348
346	347
321	322
291	291
268	266
241	239
197	194
161	158
139	135
110	105
79	74
64	60
61	55
40	34
23	17
21	15
20	13
17	11
11	3
-1	-9
8	1
8	1
3	-4
-1	-8
5	-2
5	-3
4	-3
-5	-11
-1	-7
8	1
0	-7
5	-2
7	0
9	2
5	-3
6	-1
15	8
12	4
8	1
11	4
13	6
19	11
17	9
15	7
25	18
25	17
18	10
18	11
22	15
26	19
23	15
19	11
24	17
24	17
13	6
12	5
23	16
20	12
7	0
10	2
17	9
17	10
13	5
8	1
13	5
11	4
5	-2
4	-4
15	8
18	11
8	0
6	-2
10	3
22	14
-1	-10
5	-3
15	8
15	8
10	2
12	4
12	5
14	7
2	-5
6	0
15	8
18	11
9	2
15	8
16	9
18	11
13	6
11	4
18	11
16	9
12	5
11	4
18	10
18	11
13	5
9	2
20	13
20	13
18	10
20	13
19	12
17	9
16	8
17	10
28	21
27	20
18	11
23	16
28	22
24	18
20	12
19	12
27	21
25	17
17	11
25	19
28	22
31	25
19	13
23	17
30	24
30	24
22	17
30	24
35	29
37	31
40	34
48	43
78	73
96	92
108	102
95	89
86	81
95	90
111	107
108	103
96	90
76	70
66	61
58	53
54	48
57	52
41	34
20	14
20	13
18	11
5	-2
10	3
13	6
16	9
7	0
11	5
15	9
22	15
20	12
23	17
28	22
25	18
52	47
143	141
201	200
291	294
439	444
464	465
399	399
81	67
-253	-267
-346	-360
-286	-299
-187	-197
-79	-86
7	0
39	32
48	42
45	40
53	47
63	57
64	59
67	62
70	64
79	74
81	75
79	73
83	77
90	85
89	84
89	84
88	83
101	96
100	95
96	92
106	101
118	114
123	118
121	117
124	120
138	134
147	143
150	146
160	156
167	164
179	176
186	184
198	195
213	210
229	227
235	233
257	255
276	275
286	287
296	296
307	307
328	328
339	339
339	340
350	351
360	361
369	368
353	353
352	351
336	336
304	303
264	262
243	240
214	211
180	176
144	139
122	117
103	97
85	80
66	61
54	48
51	44
42	34
30	23
30	23
28	22
25	18
22	15
20	13
31	24
28	21
26	19
24	17
28	22
30	22
20	13
23	17
32	26
29	23
22	15
26	20
39	33
37	31
38	31
34	27
33	26
39	31
40	34
44	38
45	39
45	38
45	38
38	32
46	39
44	38
41	35
43	38
42	36
39	32
36	30
41	35
37	31
39	33
33	27
32	26
34	28
37	31
27	20
30	24
35	27
33	27
26	20
27	21
27	20
26	19
26	19
26	20
23	17
27	20
25	18
29	23
28	21
26	20
22	16
24	17
31	25
28	22
24	17
26	20
30	24
28	21
28	22
23	18
31	26
26	20
19	13
24	18
34	27
31	24
23	16
21	15
28	21
30	24
22	16
27	21
31	25
30	23
29	22
28	21
29	23
28	21
29	23
34	28
29	23
32	26
28	21
30	23
33	27
32	25
32	26
40	33
39	34
35	29
34	28
38	32
43	37
50	44
48	42
65	61
89	83
95	92
102	96
99	94
106	102
117	114
121	116
107	102
94	89
79	74
66	61
64	59
64	59
55	48
28	22
22	15
23	16
25	18
21	13
25	16
19	11
12	5
16	9
26	20
31	24
21	13
16	8
31	24
37	31
33	26
50	45
135	133
193	191
283	285
442	446
466	468
419	420
114	101
-218	-232
-322	-336
-269	-281
-175	-185
-64	-71
8	1
44	37
58	52
62	56
69	63
80	75
82	76
74	68
83	77
95	90
100	95
102	96
112	108
125	121
121	117
123	118
126	122
133	129
131	127
137	134
145	141
148	144
150	146
153	150
152	148
164	161
165	161
171	168
183	180
194	192
202	198
203	200
223	221
230	228
241	239
253	251
272	272
282	282
294	293
301	300
315	315
330	331
335	335
338	339
347	348
361	361
356	356
348	348
341	339
331	330
308	306
270	268
244	242
217	214
185	181
156	152
134	129
119	116
95	89
80	74
76	70
75	69
62	55
50	43
50	43
57	50
52	45
41	35
45	39
47	40
48	41
47	41
49	43
52	45
49	42
48	42
51	45
57	51
49	42
46	40
62	56
59	54
58	52
53	47
56	50
65	60
60	54
56	51
60	54
64	58
55	49
58	52
59	53
65	60
57	51
52	46
55	50
59	54
48	42
51	44
51	45
48	41
45	39
41	35
43	37
47	41
40	34
38	31
43	37
46	39
41	35
35	29
36	29
43	37
39	32
32	25
35	28
42	35
39	33
31	25
35	28
38	31
37	31
35	28
38	31
42	37
36	29
31	25
42	36
42	35
33	26
30	24
33	26
36	30
36	29
35	28
33	26
37	31
29	21
29	23
32	27
44	38
35	29
32	25
40	33
37	30
28	22
30	23
35	29
43	37
37	30
34	28
35	29
38	31
36	29
31	25
36	30
42	36
34	28
39	33
45	39
43	37
35	29
30	24
37	31
39	34
37	31
34	28
39	33
41	34
34	27
30	24
40	34
44	38
35	29
37	31
40	33
49	43
49	43
58	52
89	84
111	107
118	114
106	101
102	98
108	103
121	116
104	99
90	85
79	73
67	61
53	47
50	44
57	51
35	28
16	9
18	10
14	6
12	5
12	4
12	4
16	9
10	2
12	5
14	7
21	14
20	13
20	13
22	16
33	26
80	76
168	166
220	220
343	347
484	488
448	449
370	365
-41	-55
-301	-317
-359	-374
-271	-283
-161	-170
-58	-65
16	10
39	32
43	36
47	41
50	43
59	53
58	52
60	54
70	64
75	70
79	73
76	70
76	69
83	78
90	83
84	79
82	77
94	89
98	93
95	90
96	91
109	104
115	110
118	113
123	119
136	132
142	137
143	140
146	142
164	161
178	175
187	184
191	190
213	211
231	228
234	232
249	247
264	263
288	287
295	294
305	305
325	325
342	341
341	341
348	348
363	364
363	364
351	352
337	337
323	323
302	301
262	260
226	223
202	199
169	165
139	134
110	104
97	92
82	76
54	48
46	40
44	37
43	37
26	20
27	21
25	18
27	20
20	13
19	12
18	12
24	17
18	11
13	6
20	13
23	17
18	11
24	17
24	17
25	18
25	18
24	18
34	27
35	28
32	25
33	27
35	27
37	31
30	23
28	22
39	33
39	32
31	25
37	30
38	32
41	34
33	26
37	31
40	34
36	29
33	26
27	19
39	32
31	24
25	18
21	13
27	20
26	19
24	17
16	10
20	13
21	15
18	11
22	15
23	17
23	17
15	8
18	12
19	13
25	19
14	7
14	8
20	14
18	11
9	2
6	-1
16	9
22	15
15	9
15	8
25	18
26	20
19	12
21	15
28	21
19	13
14	8
22	15
18	11
19	13
15	8
11	5
18	11
19	12
35	30
12	4
10	3
19	13
16	9
14	8
18	11
19	13
20	14
22	16
26	20
23	16
16	9
14	7
25	18
20	13
16	10
20	14
23	17
26	19
21	15
18	12
22	15
20	14
14	8
20	14
24	18
31	24
17	11
18	11
27	21
30	24
31	24
36	30
55	49
81	75
91	86
100	94
83	77
81	76
93	88
104	99
94	88
78	73
59	53
50	44
49	43
42	35
37	30
21	13
11	5
3	-4
-3	-10
0	-7
11	5
6	-1
0	-7
1	-6
5	-1
8	1
5	-2
6	-1
12	6
12	5
30	25
111	108
190	187
254	255
398	403
487	490
405	408
224	214
-190	-204
-342	-357
-324	-337
-228	-238
-127	-134
-29	-35
26	21
34	28
32	27
39	33
48	42
50	44
47	42
52	46
61	56
66	60
65	61
67	63
81	76
74	68
69	64
76	72
87	82
87	82
86	81
91	86
107	103
106	101
102	98
112	109
126	123
129	126
129	126
144	141
158	156
164	161
170	167
186	183
200	199
215	213
219	218
240	239
260	259
274	273
288	287
296	297
312	313
334	334
336	336
340	341
360	362
364	365
353	355
346	347
339	339
314	313
277	275
247	245
213	210
176	172
136	131
117	111
99	93
74	69
49	43
44	38
45	38
32	25
16	10
13	6
17	11
17	10
1	-6
9	2
13	5
10	3
4	-3
10	4
11	5
10	4
7	0
5	-1
13	6
20	13
9	2
12	5
17	10
18	11
14	8
16	9
30	24
29	22
21	15
24	18
34	28
31	24
24	17
25	19
32	25
30	24
24	18
29	23
31	25
25	18
21	14
24	18
29	23
21	15
18	11
22	15
25	19
24	18
20	14
22	16
21	14
20	13
12	6
13	6
27	21
20	12
13	6
17	10
19	12
14	7
10	4
19	13
25	19
16	9
10	4
18	12
14	8
16	10
9	3
15	9
16	9
17	10
11	5
19	13
21	14
19	12
15	9
18	12
24	18
25	19
21	15
26	19
27	21
16	10
15	9
25	19
28	23
28	21
20	13
21	15
27	21
25	18
22	16
23	16
31	25
29	22
25	18
33	26
34	28
30	23
28	22
38	33
36	30
28	22
25	19
29	23
33	27
34	28
28	21
28	23
36	30
41	35
40	34
42	36
56	51
65	60
89	84
105	101
118	114
100	95
91	86
104	101
126	122
109	104
97	92
82	77
75	69
63	58
52	45
57	51
44	37
22	15
16	9
21	15
28	22
20	14
15	8
23	16
23	16
22	15
23	15
25	18
36	29
30	23
23	15
29	23
95	92
178	176
215	214
350	354
485	490
434	436
345	339
-70	-84
-291	-305
-337	-351
-248	-259
-144	-152
-32	-38
25	19
43	37
54	48
65	60
65	60
62	57
75	71
82	77
76	71
84	79
88	84
91	87
88	83
92	87
98	93
106	102
106	101
107	102
111	107
124	120
122	118
124	120
133	130
149	146
140	137
142	138
154	152
166	164
172	170
185	183
189	187
201	200
211	210
218	218
235	234
254	254
266	265
278	278
298	298
314	315
321	323
333	335
349	351
358	359
362	363
358	359
366	367
364	366
352	352
328	328
304	304
274	273
242	241
205	203
176	173
151	147
120	115
105	100
87	82
71	65
58	52
53	49
52	46
41	36
34	29
37	31
37	31
37	31
29	24
31	26
35	31
31	25
26	20
20	13
35	29
42	38
39	33
33	27
31	25
43	38
39	33
35	29
35	29
43	37
43	37
41	35
44	38
49	43
49	42
46	40
48	43
51	45
46	40
43	38
45	39
49	42
44	38
46	39
38	32
42	35
38	31
38	32
34	28
37	30
29	23
32	25
35	29
25	19
22	16
22	16
29	24
31	24
22	15
17	11
25	20
32	26
26	20
25	19
23	18
23	16
20	14
20	14
24	18
28	21
23	17
18	12
24	18
26	20
16	9
15	9
25	19
29	21
21	15
24	17
32	25
25	18
19	12
17	11
20	15
27	20
26	20
26	20
31	24
28	23
30	24
27	21
31	26
30	24
23	17
25	19
31	26
32	26
25	19
23	17
26	21
28	22
27	21
27	21
32	26
29	22
31	25
33	28
40	34
60	55
75	70
85	81
100	96
90	85
88	83
95	92
106	101
94	88
80	75
69	65
60	55
55	49
38	33
30	23
13	7
8	1
6	-1
0	-7
6	-1
2	-5
-4	-11
4	-3
11	4
12	4
0	-7
3	-4
13	7
11	4
0	-7
8	1
81	77
173	170
214	213
347	351
467	470
411	413
281	273
-138	-152
-330	-346
-354	-367
-261	-272
-157	-164
-47	-54
6	0
24	19
32	26
41	36
47	42
46	40
48	43
61	57
66	62
63	58
67	62
70	65
77	73
69	65
74	69
81	77
82	77
82	77
84	79
92	88
98	94
101	97
102	98
109	105
119	115
116	112
123	119
137	134
150	147
151	147
161	158
179	178
191	189
190	188
205	203
227	226
244	244
248	247
261	261
278	278
291	292
304	304
312	312
321	321
327	328
330	331
331	331
323	323
309	310
286	285
258	257
236	234
199	195
162	159
134	131
112	107
92	88
67	62
48	43
37	32
35	29
23	17
21	15
21	15
11	5
-1	-7
6	0
9	3
9	2
5	-1
3	-4
8	2
12	6
11	5
12	5
15	8
19	12
10	4
9	3
17	11
23	17
18	12
20	14
29	23
32	26
27	21
27	21
31	25
35	29
32	26
26	20
35	30
35	29
30	24
25	19
33	27
34	28
29	23
24	18
26	20
22	16
18	11
21	16
19	14
26	20
16	10
16	9
20	14
22	15
17	11
18	12
27	21
25	18
23	16
18	12
20	14
22	16
16	9
16	10
23	17
21	14
18	12
21	15
27	22
26	19
20	13
25	19
30	24
31	25
26	20
25	19
29	23
31	25
31	24
32	26
33	28
32	26
23	17
32	26
40	35
37	31
33	26
33	27
36	31
37	32
34	28
36	31
45	40
48	43
38	32
47	41
47	41
40	34
39	34
45	40
47	42
47	42
43	38
50	44
55	50
52	47
45	39
51	45
58	52
60	55
51	46
50	44
58	53
56	50
54	49
67	63
76	72
86	82
105	102
127	124
140	135
126	122
110	106
126	122
151	147
133	128
120	116
110	105
99	94
96	91
80	74
85	80
67	61
54	48
46	41
49	43
55	50
55	49
48	43
56	52
60	55
56	50
49	43
56	52
60	55
58	53
57	52
71	67
147	146
231	230
280	282
433	438
543	548
466	469
326	318
-98	-111
-276	-290
-288	-300
-197	-206
-84	-91
25	20
72	68
83	78
93	88
104	99
104	99
110	105
113	108
119	115
122	118
122	118
126	123
130	126
130	126
129	126
138	134
143	139
138	135
137	134
147	144
158	155
160	157
158	155
163	161
178	176
185	183
183	181
193	191
204	203
209	207
215	214
230	229
248	248
250	249
258	256
277	277
295	296
311	311
319	320
332	333
354	355
361	363
370	372
384	386
400	401
400	403
401	403
401	404
409	410
384	385
352	353
326	325
299	298
263	262
223	221
197	194
166	162
139	135
110	106
97	93
87	83
74	69
65	60
59	54
57	53
43	37
43	38
46	41
46	41
42	36
40	34
40	35
42	36
39	33
36	30
36	31
42	36
41	36
35	29
36	30
46	40
44	37
41	36
44	39
52	45
45	39
46	41
53	48
59	53
43	38
44	39
53	48
50	44
51	45
45	39
46	40
48	41
45	39
37	31
44	39
45	39
36	28
30	24
30	24
38	32
30	23
25	20
33	26
30	24
21	15
19	13
19	13
24	17
19	13
12	6
20	14
19	13
14	7
13	6
16	10
19	12
11	3
0	-7
5	-2
14	6
10	2
10	4
10	4
9	3
10	3
3	-3
2	-4
6	-1
-1	-7
-3	-10
4	-3
5	-2
1	-6
-1	-8
1	-5
5	-2
-3	-10
-4	-10
-1	-8
1	-6
-7	-14
-4	-11
-7	-13
-6	-13
-5	-11
-7	-14
-3	-10
-2	-9
-4	-12
-8	-15
-2	-9
-2	-9
-7	-14
-10	-16
-5	-12
-1	-7
-3	-10
-5	-12
-4	-11
-5	-11
-8	-14
-2	-9
-8	-15
-6	-13
-9	-16
-12	-19
-7	-14
6	-1
9	3
23	17
50	44
64	58
51	44
33	26
49	43
71	65
65	60
42	36
34	27
22	15
8	1
-4	-10
6	0
-3	-11
-33	-41
-40	-47
-36	-44
-37	-45
-43	-51
-47	-55
-39	-47
-37	-45
-44	-52
-46	-54
-38	-45
-34	-42
-36	-44
-46	-54
-35	-43
14	9
107	103
154	152
267	269
417	420
398	399
335	332
-37	-52
-323	-339
-399	-414
-337	-350
-234	-244
-122	-129
-52	-59
-28	-34
-23	-29
-11	-18
-8	-15
-9	-16
-2	-9
9	3
5	-1
2	-4
10	4
19	13
15	8
15	9
22	16
27	22
24	17
23	17
36	30
43	37
43	37
44	39
50	46
63	59
63	59
68	64
76	72
90	85
91	86
104	100
114	111
125	123
132	129
146	144
169	167
176	174
184	182
199	197
224	223
240	239
249	249
258	258
269	269
286	286
289	290
293	294
300	301
299	299
283	282
262	262
242	241
209	207
172	169
137	133
107	103
76	71
45	40
29	22
10	3
1	-6
-20	-27
-24	-32
-29	-36
-29	-37
-39	-47
-47	-55
-44	-52
-44	-52
-45	-53
-46	-54
-44	-52
-40	-48
-52	-60
-46	-54
-41	-48
-38	-46
-39	-47
-42	-50
-40	-47
-41	-49
-47	-55
-43	-50
-39	-46
-29	-36
-33	-40
-31	-39
-29	-36
-29	-36
-32	-40
-31	-39
-25	-33
-30	-37
-31	-38
-25	-31
-22	-29
-23	-30
-29	-37
-36	-43
-26	-33
-25	-32
-38	-45
-34	-42
-34	-42
-30	-37
-36	-43
-42	-49
-38	-45
-39	-47
-45	-53
-37	-45
-30	-38
-34	-42
-44	-53
-47	-54
-38	-46
-41	-49
-47	-56
-43	-51
-42	-49
-36	-43
-44	-52
-49	-57
-44	-52
-44	-52
-47	-55
-44	-51
-41	-49
-41	-49
-45	-54
-49	-56
-45	-52
-45	-53
-51	-59
-51	-59
-46	-54
-43	-51
-44	-53
-49	-57
-40	-48
-44	-51
-56	-64
-52	-60
-44	-52
-42	-50
-50	-59
-48	-56
-41	-48
-43	-52
-51	-60
-45	-53
-36	-44
-40	-48
-47	-55
-46	-54
-44	-52
-40	-49
-49	-56
-48	-56
-48	-55
-37	-45
-45	-53
-41	-48
-34	-41
-26	-34
-21	-27
0	-7
24	18
30	25
17	11
11	5
23	16
41	34
23	16
7	1
5	-2
-3	-10
-21	-29
-34	-40
-27	-35
-41	-49
-58	-66
-65	-74
-69	-79
-60	-69
-69	-77
-65	-73
-64	-70
-64	-71
-67	-75
-61	-68
-55	-64
-58	-66
-58	-65
-60	-67
-54	-61
-19	-26
59	55
99	96
206	207
364	366
357	357
301	297
-37	-51
-334	-350
-421	-438
-354	-367
-249	-259
-139	-148
-88	-95
-59	-65
-32	-40
-27	-34
-30	-37
-26	-33
-17	-23
-11	-18
-12	-19
-7	-15
-2	-9
3	-4
3	-4
6	0
12	6
14	8
13	7
12	6
24	18
21	15
22	16
30	24
38	32
42	37
40	35
49	44
63	57
73	68
72	66
80	75
94	90
99	95
112	108
115	111
133	130
144	141
152	149
168	166
180	178
193	192
200	199
213	211
222	221
236	234
236	235
236	235
243	242
239	238
223	222
214	213
198	195
168	165
130	127
101	97
81	76
59	53
22	16
4	-3
0	-7
-9	-18
-32	-39
-40	-47
-34	-42
-41	-49
-56	-63
-55	-63
-55	-62
-53	-61
-62	-70
-60	-67
-51	-59
-57	-65
-55	-62
-51	-59
-50	-58
-49	-57
-60	-67
-56	-63
-46	-54
-47	-55
-51	-59
-52	-60
-44	-52
-38	-46
-40	-48
-37	-45
-39	-47
-40	-48
-43	-51
-36	-44
-34	-41
-34	-42
-40	-47
-40	-47
-38	-46
-39	-47
-42	-50
-42	-49
-41	-48
-40	-48
-48	-57
-46	-53
-38	-46
-51	-59
-58	-66
-53	-61
-46	-53
-47	-54
-51	-60
-59	-67
-54	-61
-54	-62
-57	-65
-53	-60
-46	-53
-47	-55
-59	-66
-52	-60
-50	-58
-51	-59
-55	-63
-50	-58
-49	-57
-51	-60
-56	-65
-54	-61
-46	-54
-49	-57
-55	-62
-50	-57
-45	-52
-48	-56
-52	-60
-50	-57
-47	-54
-47	-55
-57	-65
-50	-58
-43	-51
-47	-55
-53	-61
-50	-57
-39	-47
-52	-60
-54	-62
-52	-60
-43	-52
-51	-60
-51	-59
-46	-54
-43	-50
-44	-52
-55	-63
-50	-58
-48	-55
-40	-48
-41	-48
-31	-38
-11	-20
10	2
15	9
28	21
12	5
15	9
27	22
35	28
18	12
9	1
-10	-17
-18	-24
-19	-26
-22	-30
-31	-39
-55	-63
-54	-62
-65	-72
-69	-77
-64	-71
-57	-64
-59	-66
-65	-73
-63	-70
-59	-66
-55	-63
-58	-65
-54	-61
-47	-54
-58	-65
-37	-43
51	47
135	132
192	192
343	345
412	412
337	339
116	104
-276	-291
-427	-444
-408	-422
-300	-311
-187	-196
-92	-100
-42	-49
-32	-39
-26	-33
-16	-22
-8	-15
-7	-13
-12	-18
0	-6
9	3
11	4
7	1
16	10
25	19
18	12
17	12
23	18
31	26
33	27
34	28
42	37
51	45
53	48
49	44
60	55
66	62
70	65
73	69
89	85
96	92
106	103
114	110
128	125
146	143
152	149
162	158
181	179
200	198
212	211
224	223
237	237
255	255
259	258
266	265
282	281
288	288
285	284
279	279
274	274
259	258
237	235
197	194
167	164
136	132
105	100
69	63
54	46
34	28
17	10
-3	-11
-12	-18
-14	-22
-25	-33
-36	-44
-33	-42
-29	-38
-38	-46
-48	-56
-44	-52
-39	-46
-42	-50
-47	-55
-42	-50
-40	-48
-43	-50
-40	-47
-37	-44
-34	-42
-40	-47
-38	-46
-35	-43
-25	-32
-31	-38
-33	-41
-27	-34
-21	-28
-21	-29
-30	-37
-19	-27
-12	-19
-18	-25
-21	-28
-15	-21
-17	-25
-24	-31
-20	-27
-11	-18
-13	-20
-20	-28
-20	-27
-20	-27
-18	-26
-26	-34
-25	-33
-23	-30
-22	-30
-29	-37
-29	-36
-25	-32
-21	-29
-30	-39
-33	-41
-29	-36
-26	-34
-34	-42
-33	-41
-35	-43
-29	-37
-33	-41
-33	-40
-26	-33
-25	-32
-31	-39
-33	-41
-29	-36
-27	-35
-31	-39
-32	-40
-35	-43
-27	-34
-31	-39
-29	-37
-34	-41
-23	-31
-26	-34
-30	-38
-29	-37
-19	-27
-27	-35
-30	-37
-28	-36
-26	-34
-27	-35
-29	-37
-21	-29
-15	-22
-26	-33
-30	-38
-21	-27
-17	-24
-23	-31
-22	-30
-26	-33
-16	-23
-19	-27
-27	-34
-18	-25
-16	-23
-24	-32
-26	-34
-22	-30
-13	-21
-23	-30
-21	-29
-19	-27
-7	-15
-18	-26
-14	-21
-6	-13
5	-1
10	3
34	28
55	50
66	61
38	32
32	28
55	50
71	66
48	42
29	22
22	16
14	7
4	-3
-3	-9
6	0
-9	-17
-29	-37
-40	-48
-36	-44
-31	-38
-35	-43
-34	-41
-30	-37
-27	-34
-32	-40
-35	-43
-30	-37
-22	-30
-28	-35
-24	-31
-4	-10
74	71
150	148
208	209
362	366
458	461
367	369
211	200
-210	-224
-377	-393
-382	-396
-284	-296
-168	-177
-58	-65
-14	-21
-8	-15
4	-2
8	1
7	0
11	5
17	11
20	13
26	19
21	15
33	27
39	33
34	29
38	32
49	43
57	51
49	43
53	47
62	57
68	63
64	58
66	61
80	75
90	86
84	79
91	87
111	107
119	116
122	118
129	126
142	139
162	159
169	166
186	184
206	204
218	217
225	223
241	240
263	263
283	283
291	290
301	301
318	318
332	333
331	331
338	339
342	342
330	330
309	309
285	284
257	256
225	222
180	177
145	141
117	113
96	91
68	63
51	45
40	34
30	24
17	10
5	-2
4	-2
-1	-7
-14	-21
-9	-16
-7	-14
-10	-17
-15	-22
-13	-20
-11	-18
-2	-9
-13	-20
-19	-26
-12	-19
-6	-12
-14	-20
-14	-21
-8	-15
-6	-13
-9	-15
-7	-13
1	-5
7	0
-1	-9
-8	-16
3	-3
8	1
7	0
5	-1
10	3
11	5
3	-4
5	-1
18	11
14	8
7	0
3	-4
7	1
11	4
4	-3
11	5
9	3
9	2
-2	-9
0	-7
0	-6
-1	-8
-1	-9
-5	-12
2	-5
1	-6
-7	-15
-4	-11
-1	-8
-2	-10
-9	-16
-8	-15
-4	-11
-3	-10
-7	-14
-5	-12
2	-6
5	-2
0	-7
-5	-13
-5	-12
6	-1
-2	-9
0	-7
1	-6
3	-3
-5	-13
-11	-18
4	-3
10	3
1	-6
0	-7
8	1
9	1
4	-3
2	-4
10	3
9	2
7	-1
2	-5
12	6
17	10
9	1
9	1
13	6
11	4
13	6
4	-2
15	10
16	10
14	7
13	5
12	5
18	12
13	7
12	6
18	12
23	16
13	6
10	3
20	14
25	18
19	13
19	12
25	18
30	24
33	28
40	35
66	62
82	77
88	84
78	73
79	74
86	81
99	94
86	80
78	72
69	63
53	47
50	44
48	41
42	35
21	14
6	-1
6	-1
7	0
2	-6
2	-5
6	-1
11	4
2	-5
7	1
13	7
13	6
4	-3
5	-2
15	8
16	8
53	48
146	144
201	199
299	302
450	454
440	441
380	377
12	-1
-275	-291
-363	-376
-291	-303
-179	-189
-86	-93
-11	-17
26	21
38	32
40	35
47	42
56	50
55	49
62	57
65	60
73	68
71	65
67	62
72	67
77	71
75	70
79	74
84	79
86	82
93	88
89	83
90	87
106	102
113	108
109	104
108	104
118	114
128	124
134	130
137	134
158	155
166	163
163	159
177	174
199	198
210	208
217	216
232	231
251	250
262	260
269	269
288	288
302	302
306	307
315	315
330	330
336	336
332	333
326	326
311	311
300	299
274	272
243	241
213	211
190	186
153	149
123	119
98	94
86	82
66	62
47	42
44	38
39	33
32	26
18	12
13	6
13	7
14	7
9	3
9	2
16	9
18	12
0	-6
6	0
15	9
15	8
8	1
15	9
24	18
20	13
11	4
18	12
20	14
21	15
21	15
24	17
30	23
25	18
26	19
29	23
34	27
31	25
25	18
29	24
40	33
37	31
27	21
31	25
33	27
32	26
24	18
30	24
29	24
21	15
18	12
19	14
22	16
25	18
14	7
13	7
22	16
26	22
18	11
21	15
31	26
26	20
14	8
13	7
19	14
20	14
16	10
18	12
15	8
13	6
12	5
18	12
23	17
16	10
12	6
22	15
24	18
17	11
16	9
16	10
17	11
19	13
13	7
15	9
23	15
18	12
16	10
15	10
24	19
27	21
17	10
15	9
23	17
19	13
19	14
23	17
25	19
22	14
16	10
21	16
23	16
23	16
24	18
20	13
32	25
29	22
21	14
26	19
29	22
22	15
16	10
23	17
28	21
22	15
19	13
26	19
34	28
40	34
43	38
67	63
95	90
106	101
84	79
77	73
93	90
105	100
91	86
78	73
69	64
55	48
44	38
38	33
46	41
27	20
3	-3
-1	-7
8	1
5	-1
-3	-11
-1	-8
4	-2
1	-6
-1	-8
4	-3
10	3
12	5
6	-1
11	4
8	1
33	28
119	117
193	191
270	271
426	430
467	468
391	393
141	130
-239	-253
-371	-387
-335	-348
-224	-235
-113	-122
-27	-33
17	10
31	25
30	24
32	25
37	31
49	43
52	45
49	44
62	56
62	57
62	56
61	54
66	61
72	66
78	72
76	71
80	74
84	79
85	80
87	83
94	89
103	99
104	100
110	106
122	119
131	127
134	130
141	137
148	146
166	163
169	167
172	170
185	183
208	206
218	217
231	230
248	247
267	266
282	282
292	292
303	304
321	322
330	331
334	335
344	346
348	350
339	340
330	331
315	315
286	285
252	250
214	212
185	183
152	148
116	111
89	83
69	63
52	47
35	28
17	11
16	9
13	6
0	-7
-8	-15
-9	-17
-3	-11
-10	-19
-13	-20
-10	-17
-7	-14
-11	-18
-18	-25
-18	-26
-11	-18
-11	-21
-12	-19
-12	-19
-6	-14
-7	-14
-7	-14
-6	-13
-6	-12
-1	-8
-2	-9
3	-3
6	-1
5	-1
1	-5
7	1
9	2
4	-2
8	2
12	5
20	13
4	-2
2	-5
11	5
9	3
3	-3
4	-1
6	0
8	2
9	3
4	-2
5	-1
-4	-10
-2	-8
-5	-12
2	-4
2	-4
-3	-10
-3	-9
-5	-11
3	-3
-3	-10
-11	-17
-2	-8
3	-4
-8	-16
-8	-15
-4	-11
1	-5
-2	-9
-7	-14
-1	-7
6	-1
-5	-12
-6	-13
-6	-12
-2	-9
-8	-15
-3	-11
-6	-13
-1	-8
-6	-13
-9	-14
-3	-9
0	-6
-7	-14
-10	-17
-3	-10
2	-5
-5	-13
-8	-15
-3	-10
1	-6
-3	-9
-2	-9
3	-4
5	-2
-1	-8
-4	-11
3	-4
1	-6
-7	-14
-8	-14
7	1
4	-3
7	0
0	-6
6	-1
7	0
1	-6
2	-4
2	-4
3	-3
10	2
4	-3
1	-5
9	3
6	0
3	-3
6	-1
14	5
4	-4
4	-3
6	0
14	8
8	1
6	-1
11	4
15	9
13	7
6	0
11	5
12	6
10	5
10	4
18	13
30	24
30	24
51	46
72	67
95	91
81	75
68	63
76	71
89	85
89	84
73	67
60	55
54	48
38	32
30	24
33	27
36	30
5	-2
-3	-9
-11	-18
-6	-13
-2	-9
-8	-15
-3	-10
-3	-10
-9	-16
-8	-14
1	-5
4	-3
4	-3
0	-7
3	-3
8	2
77	73
162	160
219	218
347	350
465	469
408	410
327	321
-87	-101
-319	-333
-357	-371
-261	-272
-162	-170
-56	-63
4	-3
31	24
30	24
35	28
31	25
43	37
54	48
53	47
52	47
63	58
65	60
59	53
64	59
79	74
84	78
79	74
78	73
85	80
92	87
86	81
89	85
102	98
107	103
109	104
113	109
127	123
132	128
135	131
145	141
159	156
166	164
168	165
184	182
202	200
219	217
229	227
242	241
260	260
273	272
281	281
296	296
319	319
333	334
334	335
340	341
354	355
358	359
352	353
339	340
322	323
295	294
258	257
226	224
197	193
171	167
130	126
103	98
87	81
75	69
47	41
36	29
33	27
31	25
19	13
17	10
22	15
20	12
11	4
15	8
17	10
11	5
1	-6
8	2
20	14
19	12
13	7
12	6
17	10
19	13
16	9
18	11
23	17
23	16
22	15
26	20
33	27
29	23
23	17
30	24
36	29
40	33
32	26
32	26
40	34
45	39
34	27
34	28
41	35
49	43
34	27
34	28
40	33
37	31
33	26
33	27
32	25
34	28
31	25
27	21
32	27
30	23
25	18
23	17
30	24
28	22
27	22
21	15
28	22
30	24
25	19
27	20
28	22
28	23
17	10
18	12
27	21
31	25
23	16
22	15
22	16
26	19
18	12
27	20
29	23
25	19
20	14
20	14
24	18
29	23
27	20
25	19
27	21
24	18
17	11
24	17
34	28
30	23
24	17
25	19
30	25
33	27
27	21
21	15
27	21
29	23
25	19
30	25
31	25
31	25
25	19
31	25
39	33
35	29
26	20
24	18
29	23
31	25
24	18
26	20
36	30
37	30
30	24
34	29
38	32
44	38
38	33
47	42
63	57
89	84
96	92
106	102
102	98
101	97
99	95
107	101
102	97
92	87
82	76
68	63
58	52
53	47
42	37
29	22
22	16
21	14
13	6
10	3
15	9
17	10
13	6
10	4
18	13
17	11
10	3
14	8
25	19
28	22
12	6
43	38
132	130
194	192
260	262
422	426
484	486
427	429
153	141
-213	-227
-333	-348
-308	-320
-210	-220
-99	-107
-9	-16
23	17
32	26
45	39
55	49
54	49
52	46
59	53
69	63
69	63
69	63
75	69
76	70
74	68
74	69
82	77
96	92
90	85
80	75
91	87
102	97
107	102
109	105
109	104
117	112
126	122
127	123
127	124
138	135
153	149
156	153
168	165
179	178
193	191
202	200
213	211
237	236
251	249
249	249
266	266
286	285
292	292
297	297
311	312
322	323
322	322
321	322
328	329
322	323
302	302
276	275
254	253
236	235
203	201
165	161
135	131
119	114
99	94
69	64
57	50
50	44
40	33
27	20
27	20
30	24
29	21
21	14
10	3
15	9
16	9
12	6
13	7
13	6
14	7
13	5
14	8
20	13
17	10
17	10
23	16
27	21
24	18
17	10
21	14
30	23
32	26
30	23
34	27
36	30
35	29
28	23
30	25
35	29
37	31
33	27
30	24
32	26
32	25
22	16
30	24
31	25
28	22
25	19
31	25
30	25
30	24
23	17
22	16
27	21
22	16
21	15
23	17
27	21
25	18
20	13
23	17
27	20
26	19
18	12
30	23
33	26
27	20
20	12
22	15
24	18
25	18
20	13
25	18
30	23
26	20
29	22
29	22
33	27
27	21
20	14
28	23
36	31
30	25
26	19
34	28
34	27
30	23
28	22
33	26
40	33
33	26
31	24
33	27
41	35
35	29
34	28
35	30
44	38
47	41
41	35
41	34
47	41
43	36
44	38
47	42
59	53
65	59
71	65
93	89
115	110
126	122
120	115
115	110
127	123
134	131
127	123
118	114
109	104
98	93
83	78
82	77
82	77
73	66
53	46
46	39
52	45
43	36
40	34
44	37
53	49
51	44
46	41
50	44
57	51
60	54
59	53
61	56
61	54
66	62
136	134
225	224
282	283
422	427
534	538
469	472
337	330
-74	-87
-277	-292
-295	-307
-190	-199
-83	-90
18	12
77	71
100	95
106	102
107	103
124	118
123	119
123	118
126	122
141	137
148	144
145	141
146	141
152	148
164	160
162	158
160	156
166	163
175	172
180	177
180	177
186	184
199	196
206	202
203	200
212	209
224	222
232	230
237	235
247	246
261	260
265	264
275	275
292	292
313	313
319	321
330	332
352	352
374	375
374	376
384	386
405	408
420	423
427	430
437	440
446	449
453	456
447	449
437	439
431	433
418	420
386	387
362	362
328	327
296	295
265	263
236	233
216	212
200	196
192	187
175	171
170	167
164	160
150	145
142	138
146	142
145	141
143	139
139	134
144	140
145	142
139	135
140	137
149	146
151	148
151	147
149	146
154	150
159	156
157	154
156	152
165	162
167	163
166	163
161	158
169	166
171	169
170	167
169	166
172	169
179	176
168	164
168	164
174	170
175	172
171	168
169	165
172	169
175	172
170	167
166	162
164	160
169	165
164	160
158	154
160	158
168	165
160	156
161	158
163	159
167	163
157	154
157	154
158	154
165	161
159	156
152	149
155	151
160	158
153	150
154	151
153	150
160	156
152	149
149	146
153	151
155	152
152	148
149	146
148	144
151	148
151	148
150	147
154	151
150	147
149	145
148	144
145	141
151	148
153	149
142	138
153	149
147	143
145	141
145	141
148	144
151	147
142	137
139	135
143	140
147	144
141	136
137	133
141	137
145	142
138	134
134	129
136	132
139	133
134	130
128	124
131	127
141	137
135	131
133	129
131	127
135	131
131	126
127	122
128	124
131	127
130	126
119	115
118	114
122	117
117	113
123	120
130	127
138	134
142	138
161	158
185	183
191	188
168	164
167	164
180	179
188	186
169	165
151	147
143	139
135	131
118	114
115	110
118	113
96	91
73	68
64	59
65	59
66	61
58	52
59	53
66	61
60	55
54	48
52	46
59	54
63	57
53	48
47	42
69	65
156	154
228	226
288	291
452	458
522	526
434	437
229	219
-169	-183
-326	-340
-309	-320
-207	-217
-97	-103
4	-1
43	38
43	38
54	49
62	57
57	53
57	52
64	59
72	67
67	62
66	60
73	68
79	74
74	69
76	71
77	72
87	82
81	77
79	74
85	80
91	86
89	84
89	85
98	94
106	101
104	100
112	109
127	123
123	120
127	124
138	134
148	144
166	164
171	168
179	176
200	199
212	211
218	216
231	231
250	249
267	266
274	273
281	280
298	296
310	309
311	310
309	308
311	311
307	306
294	293
262	260
240	238
213	209
166	162
125	121
104	99
74	68
41	35
22	16
10	3
1	-7
-22	-30
-28	-37
-33	-42
-42	-51
-43	-52
-49	-57
-50	-59
-48	-57
-57	-65
-62	-70
-59	-67
-52	-60
-59	-67
-63	-71
-60	-68
-58	-66
-59	-67
-67	-75
-61	-69
-62	-69
-66	-75
-67	-77
-60	-68
-58	-67
-70	-79
-71	-80
-62	-70
-63	-71
-68	-77
-70	-80
-61	-69
-61	-69
-70	-79
-70	-80
-60	-68
-68	-76
-76	-84
-77	-86
-77	-86
-79	-89
-81	-90
-82	-92
-80	-89
-79	-89
-89	-98
-91	-100
-87	-97
-84	-93
-88	-98
-95	-105
-94	-104
-95	-104
-100	-111
-99	-110
-93	-103
-93	-102
-102	-112
-100	-109
-96	-106
-97	-106
-109	-119
-106	-116
-102	-111
-101	-110
-105	-114
-108	-118
-109	-117
-102	-111
-111	-121
-111	-120
-102	-111
-101	-111
-110	-120
-110	-120
-105	-115
-108	-118
-107	-117
-110	-121
-110	-120
-102	-112
-110	-119
-113	-122
-104	-114
-105	-114
-113	-122
-110	-118
-101	-110
-100	-109
-107	-116
-109	-118
-107	-116
-105	-114
-112	-122
-112	-121
-102	-112
-108	-117
-112	-122
-111	-120
-102	-112
-104	-113
-110	-119
-118	-127
-109	-119
-110	-120
-114	-124
-114	-123
-100	-109
-98	-106
-96	-105
-76	-85
-48	-55
-33	-41
-50	-59
-60	-68
-42	-49
-28	-35
-43	-52
-55	-63
-66	-75
-73	-83
-89	-98
-95	-103
-89	-97
-104	-114
-122	-131
-131	-141
-128	-137
-126	-135
-130	-140
-134	-144
-133	-143
-129	-139
-128	-137
-130	-140
-124	-133
-119	-129
-130	-139
-125	-134
-117	-126
-66	-72
20	14
71	68
187	188
329	330
302	300
236	230
-140	-156
-421	-439
-495	-512
-415	-429
-307	-319
-191	-200
-122	-130
-101	-110
-90	-99
-90	-99
-88	-97
-87	-96
-75	-83
-69	-78
-71	-80
-71	-80
-60	-67
-55	-64
-60	-67
-52	-60
-45	-53
-45	-53
-50	-58
-43	-51
-27	-34
-28	-35
-33	-40
-30	-36
-15	-22
-10	-17
-7	-14
0	-6
16	10
22	16
19	13
36	30
50	45
62	57
69	64
87	83
99	95
119	115
124	120
139	135
161	158
174	172
184	183
198	197
214	212
223	222
228	227
238	237
247	246
244	243
227	225
208	207
190	188
157	153
112	107
87	82
63	58
32	25
2	-5
-19	-26
-32	-39
-45	-53
-63	-71
-71	-80
-70	-79
-70	-79
-79	-88
-80	-89
-77	-86
-83	-92
-87	-96
-79	-88
-79	-88
-79	-88
-79	-87
-76	-85
-79	-87
-75	-84
-83	-91
-80	-88
-70	-78
-66	-74
-72	-80
-70	-78
-63	-71
-60	-68
-63	-71
-66	-74
-55	-64
-54	-61
-56	-63
-54	-62
-48	-56
-57	-64
-54	-61
-50	-58
-45	-53
-50	-58
-47	-55
-53	-60
-48	-55
-56	-65
-54	-62
-52	-61
-52	-59
-50	-58
-59	-66
-57	-64
-49	-57
-50	-58
-64	-71
-61	-68
-56	-63
-54	-62
-57	-65
-54	-61
-54	-61
-58	-66
-60	-67
-54	-62
-48	-56
-56	-64
-61	-68
-52	-60
-52	-59
-49	-57
-56	-63
-51	-59
-47	-54
-51	-59
-59	-66
-50	-57
-40	-47
-43	-50
-52	-60
-51	-58
-48	-55
-47	-55
-44	-53
-43	-51
-39	-46
-42	-51
-51	-59
-46	-54
-43	-51
-43	-50
-43	-51
-42	-50
-30	-38
-34	-42
-44	-51
-40	-48
-36	-43
-33	-40
-38	-44
-36	-43
-31	-39
-27	-35
-37	-44
-32	-39
-27	-34
-26	-33
-31	-38
-26	-32
-21	-27
-26	-33
-28	-36
-17	-24
-9	-17
1	-5
14	8
32	26
58	52
52	46
34	29
47	41
61	56
54	48
39	33
21	14
16	10
10	2
-2	-9
-4	-10
-13	-20
-31	-37
-35	-42
-36	-44
-31	-39
-40	-48
-45	-54
-36	-44
-33	-40
-32	-40
-27	-35
-25	-33
-24	-32
-27	-35
-25	-32
-29	-36
-3	-9
78	75
134	131
213	215
382	385
420	421
369	370
93	81
-253	-267
-375	-390
-336	-349
-239	-249
-122	-129
-48	-56
-23	-31
-2	-9
10	2
19	12
15	9
25	19
35	28
33	26
27	20
37	32
48	42
48	41
41	35
49	43
58	53
59	53
62	56
65	60
75	69
79	74
74	69
78	73
84	79
91	86
93	88
100	96
113	109
119	116
123	119
132	128
146	143
159	155
169	167
182	180
193	191
203	201
218	217
235	233
244	243
254	252
269	268
283	282
290	290
296	296
305	305
307	307
307	307
293	292
269	268
255	254
237	235
208	206
168	165
142	140
123	118
94	88
68	63
61	56
56	50
34	28
19	13
19	13
21	14
5	-2
5	-3
7	0
6	0
12	5
-2	-9
-4	-11
-2	-9
1	-5
-1	-8
5	-2
8	2
12	5
8	1
14	8
14	8
21	14
15	9
14	8
26	20
29	23
16	10
25	18
31	26
21	15
21	16
28	23
33	27
34	27
23	17
30	23
33	27
28	23
22	16
22	16
25	19
26	19
19	13
26	20
26	19
22	15
17	11
20	14
28	22
25	18
20	13
24	18
24	17
21	13
16	9
26	19
24	17
24	18
16	9
17	11
24	17
27	20
19	11
21	13
24	16
19	11
19	12
29	23
26	19
23	16
16	9
22	16
30	24
21	14
14	7
28	21
23	16
23	17
20	13
22	15
26	20
19	12
16	10
26	20
27	20
20	13
18	12
24	17
23	16
24	17
16	9
27	21
23	16
18	11
14	9
22	17
30	24
24	17
18	12
25	19
34	28
36	30
41	36
68	63
94	90
102	97
95	91
84	79
93	89
109	104
94	89
85	80
75	69
58	52
54	48
55	48
41	35
26	19
7	-1
7	0
8	0
8	0
-1	-8
1	-7
4	-3
0	-8
3	-4
11	3
12	5
9	2
8	0
11	4
14	7
30	25
118	115
196	194
266	269
420	425
478	480
411	413
174	162
-224	-240
-376	-392
-349	-363
-228	-239
-115	-123
-26	-33
13	7
28	21
36	30
37	30
44	38
54	47
48	42
49	43
67	62
74	69
71	66
70	65
74	68
83	77
83	78
81	76
91	85
100	95
92	87
102	97
106	102
116	111
113	109
121	117
129	126
137	133
139	135
145	142
156	153
174	171
180	177
182	180
202	200
224	222
229	228
242	241
252	252
274	274
284	283
294	293
309	309
328	328
329	329
332	334
347	348
353	355
341	342
330	331
322	322
302	301
266	265
232	229
199	196
166	161
128	123
99	94
85	79
71	65
51	44
37	30
32	25
29	21
12	5
13	6
12	5
16	9
6	-1
1	-6
4	-3
12	6
0	-9
5	-2
10	3
6	-1
0	-7
-1	-9
3	-5
7	-1
3	-4
5	-2
8	1
16	10
10	3
7	0
15	9
24	17
16	9
17	11
24	18
27	20
18	11
18	13
27	20
21	14
22	14
15	9
15	8
16	9
13	6
13	7
6	0
16	9
1	-6
2	-5
7	0
7	0
-2	-9
0	-7
8	0
5	-2
-4	-11
1	-6
1	-6
0	-7
-3	-10
-6	-13
-2	-9
8	1
-5	-12
-7	-15
-2	-10
1	-6
-6	-13
-12	-19
-12	-19
5	-1
-5	-13
-9	-16
-1	-8
5	-2
-4	-12
-6	-13
-3	-10
-11	-18
-12	-19
-7	-15
-6	-13
0	-7
-12	-20
-12	-19
-12	-19
-13	-20
-18	-25
-10	-17
-8	-15
-4	-10
-7	-15
-14	-21
-10	-17
-11	-18
-12	-19
-18	-26
-11	-18
-4	-11
-14	-20
-20	-27
-14	-20
-8	-15
-14	-21
-18	-24
-11	-18
-13	-20
-20	-27
-13	-20
-11	-18
-12	-19
-21	-28
-24	-31
-8	-14
-10	-17
-15	-21
-18	-25
-14	-20
-9	-16
-14	-21
-12	-19
-12	-19
-7	-14
-10	-16
-1	-8
13	8
41	37
51	46
53	49
49	44
39	34
45	40
55	49
55	50
39	32
20	13
9	3
-3	-10
5	-1
-3	-10
-17	-25
-33	-41
-39	-48
-47	-54
-46	-53
-42	-50
-39	-47
-43	-51
-41	-49
-38	-45
-38	-45
-44	-52
-34	-42
-35	-42
-33	-41
-40	-48
20	16
112	109
167	166
285	288
436	440
393	393
312	306
-102	-117
-372	-388
-415	-430
-331	-344
-227	-238
-114	-121
-42	-50
-19	-26
-21	-28
-20	-28
-13	-20
-2	-9
-2	-10
-1	-8
4	-2
9	2
15	7
9	3
24	18
30	24
20	14
21	15
33	27
30	24
32	27
37	32
41	36
52	47
52	46
50	44
66	61
74	69
78	73
78	73
93	90
108	104
109	106
124	121
139	136
155	152
160	157
176	174
201	198
212	211
220	219
239	238
257	256
275	275
278	278
291	291
305	306
312	312
310	310
307	308
301	301
278	277
246	244
221	218
190	187
156	152
113	108
78	72
63	56
40	33
18	11
7	0
-1	-7
-12	-19
-30	-37
-34	-41
-33	-40
-30	-38
-46	-54
-43	-51
-37	-44
-40	-48
-45	-53
-43	-51
-40	-48
-39	-46
-46	-54
-46	-54
-38	-46
-33	-42
-40	-48
-39	-47
-29	-37
-32	-39
-32	-40
-29	-36
-22	-30
-22	-29
-29	-36
-30	-38
-21	-29
-20	-28
-23	-31
-23	-30
-18	-25
-14	-21
-23	-30
-19	-27
-18	-26
-19	-27
-20	-28
-19	-27
-19	-26
-20	-27
-26	-33
-25	-32
-25	-32
-25	-33
-30	-37
-30	-38
-31	-39
-32	-39
-37	-45
-35	-43
-26	-35
-36	-44
-38	-46
-44	-53
-33	-41
-31	-38
-37	-44
-36	-44
-33	-41
-35	-42
-37	-44
-38	-46
-34	-42
-29	-36
-39	-46
-38	-45
-33	-40
-32	-40
-46	-54
-36	-44
-32	-39
-31	-39
-39	-47
-35	-43
-34	-42
-31	-39
-40	-48
-34	-41
-22	-30
-26	-33
-33	-41
-28	-36
-27	-34
-22	-30
-26	-33
-26	-34
-21	-27
-16	-24
-31	-38
-27	-35
-18	-25
-17	-24
-26	-33
-19	-26
-15	-22
-20	-26
-14	-21
-16	-23
-11	-18
-12	-19
-23	-30
-14	-20
-10	-16
-10	-17
-17	-23
-11	-18
-5	-12
-9	-15
-10	-17
-11	-18
-5	-12
0	-7
-3	-11
-3	-9
21	15
47	42
57	52
60	55
47	40
45	39
51	46
67	62
54	49
48	42
24	18
17	11
18	13
11	5
2	-5
-14	-21
-21	-28
-24	-31
-39	-46
-40	-46
-30	-37
-30	-37
-36	-43
-31	-38
-27	-35
-25	-32
-23	-30
-24	-31
-13	-20
-19	-27
-27	-34
34	29
135	132
178	176
288	290
428	432
400	401
317	311
-110	-124
-352	-368
-395	-410
-310	-321
-205	-215
-94	-101
-38	-45
-14	-20
-11	-18
5	-1
14	7
19	13
18	11
20	13
27	21
32	25
28	22
33	27
39	33
39	34
43	37
42	37
56	51
53	47
48	43
56	51
76	72
72	67
70	66
70	66
82	78
90	85
93	89
104	100
111	108
122	118
127	124
140	138
155	152
168	164
175	172
188	185
196	194
219	218
230	229
252	251
266	266
276	276
275	275
290	290
301	301
305	305
292	292
292	292
297	297
275	274
238	238
213	211
192	190
154	150
116	112
93	88
74	68
54	48
31	25
20	14
15	9
4	-3
-16	-23
-15	-21
-11	-18
-18	-25
-29	-36
-26	-33
-21	-27
-18	-25
-28	-35
-26	-34
-13	-19
-22	-30
-30	-38
-25	-32
-10	-18
-17	-24
-22	-29
-18	-25
-10	-18
-13	-20
-14	-21
-13	-20
-4	-11
-10	-17
-14	-21
-7	-14
2	-5
-1	-9
-11	-18
4	-2
5	-1
-1	-8
1	-7
1	-6
2	-5
-1	-8
-12	-18
-4	-11
-4	-11
-9	-16
-18	-25
-12	-19
-2	-9
-13	-21
-22	-29
-13	-21
-11	-18
-16	-24
-15	-22
-19	-26
-17	-24
-14	-22
-14	-22
-18	-25
-18	-25
-18	-26
-25	-32
-18	-25
-6	-13
-11	-19
-21	-29
-23	-29
-17	-24
-9	-17
-21	-28
-20	-27
-15	-22
-13	-21
-23	-30
-13	-20
-8	-16
-16	-24
-22	-29
-18	-25
-11	-19
-10	-17
-22	-30
-13	-21
-13	-19
-20	-28
-15	-23
-14	-21
-11	-18
-9	-17
-15	-22
-12	-19
-2	-9
-13	-20
-17	-24
-13	-20
-5	-12
-15	-21
-12	-19
-7	-15
-3	-11
-8	-15
-11	-18
-7	-14
-5	-12
-5	-11
-12	-19
-1	-7
10	4
9	2
24	19
49	44
71	67
71	66
54	48
61	56
80	75
78	72
60	54
49	43
46	40
37	31
23	17
16	10
14	7
-16	-24
-22	-29
-19	-27
-20	-28
-20	-28
-26	-33
-22	-29
-16	-24
-22	-30
-19	-25
-20	-27
-16	-24
-10	-18
-15	-23
-13	-20
-7	-13
54	50
147	145
193	193
330	334
442	446
379	380
267	259
-147	-162
-354	-370
-391	-404
-293	-304
-170	-178
-70	-77
-19	-24
2	-4
23	17
17	11
23	17
29	23
35	29
34	28
35	30
46	43
55	50
52	47
53	48
58	53
63	59
69	64
61	56
64	60
77	74
83	78
80	74
89	84
96	92
101	96
96	92
106	102
118	115
127	123
129	126
140	137
157	154
158	155
169	166
182	181
206	205
225	224
225	222
242	241
258	257
270	270
280	280
298	298
309	309
317	317
318	318
330	329
328	329
313	314
305	305
286	286
268	267
237	235
194	192
167	164
146	142
115	110
86	81
72	67
58	52
40	34
25	19
24	18
27	20
14	9
3	-3
3	-3
11	5
6	0
-1	-8
-2	-9
7	1
0	-6
1	-4
5	-1
11	6
5	-2
-1	-7
8	2
6	0
13	7
12	5
13	7
18	11
20	13
19	13
26	20
31	25
28	23
24	18
23	17
30	23
28	22
23	18
29	23
26	19
17	11
27	21
21	15
29	24
28	20
19	12
18	12
19	13
16	10
14	8
21	15
22	16
15	9
14	8
11	4
10	3
14	7
11	5
12	6
20	13
7	1
6	0
10	5
15	10
13	6
1	-6
6	-1
16	10
12	5
6	0
12	6
19	13
16	9
7	1
17	11
19	13
17	10
16	10
14	8
19	12
13	6
12	6
18	12
19	12
12	6
14	7
19	13
22	16
16	9
10	2
18	12
24	18
16	9
16	10
16	10
20	14
19	13
9	2
22	16
27	21
19	12
16	10
22	16
23	17
16	9
14	8
19	13
25	20
20	14
21	15
28	22
22	16
25	18
23	16
26	19
26	20
23	17
17	12
24	18
31	25
25	19
21	14
27	21
32	26
35	30
33	28
64	60
92	88
97	93
96	90
77	72
90	85
101	97
98	93
84	78
68	63
57	51
41	35
46	40
45	39
36	29
12	5
7	0
5	-4
0	-8
-1	-9
4	-3
4	-4
1	-5
3	-4
4	-2
14	8
9	0
-1	-7
3	-3
8	2
61	57
145	143
196	195
317	320
455	460
448	448
387	385
9	-5
-307	-322
-385	-399
-303	-316
-199	-208
-89	-96
-9	-15
22	17
30	24
33	27
28	22
38	33
48	42
55	48
46	40
51	45
53	47
61	55
61	55
62	57
71	66
74	69
68	63
79	74
81	76
79	74
83	79
95	90
100	96
100	96
103	99
113	109
119	115
128	125
131	127
144	140
154	151
163	160
172	170
186	184
201	199
210	208
224	222
246	245
265	264
269	269
284	283
303	303
319	318
320	320
330	331
340	340
346	347
331	331
325	324
312	312
292	291
258	256
218	215
184	181
160	156
118	113
94	90
76	70
54	48
33	26
21	14
19	13
10	3
-2	-9
-7	-14
-7	-14
-5	-12
-12	-19
-18	-25
-14	-21
-13	-20
-9	-16
-20	-27
-15	-23
-12	-20
-22	-30
-18	-25
-13	-21
-12	-20
-17	-25
-20	-27
-6	-13
-6	-13
-13	-21
-12	-19
-7	-14
-2	-10
-8	-16
-12	-19
0	-7
-1	-8
-12	-19
-6	-13
-5	-11
6	-1
-8	-16
-8	-15
-4	-12
-1	-8
-15	-22
-16	-24
-10	-16
-10	-17
-18	-26
-23	-31
-16	-23
-20	-27
-14	-22
-23	-29
-23	-30
-23	-32
-24	-32
-28	-35
-23	-31
-22	-30
-28	-35
-25	-32
-25	-33
-26	-34
-32	-39
-34	-41
-26	-33
-22	-29
-27	-34
-30	-38
-34	-41
-20	-29
-28	-36
-31	-38
-29	-36
-21	-29
-27	-35
-31	-39
-28	-35
-25	-32
-38	-46
-33	-41
-29	-36
-25	-32
-32	-41
-39	-46
-34	-41
-26	-33
-35	-43
-33	-40
-33	-39
-24	-31
-33	-40
-38	-46
-34	-41
-20	-28
-31	-39
-37	-44
-35	-42
-28	-35
-35	-42
-34	-41
-30	-36
-25	-32
-41	-48
-31	-38
-27	-34
-25	-32
-22	-28
-29	-35
-26	-33
-21	-28
-29	-36
-37	-44
-21	-28
-28	-36
-33	-40
-36	-43
-30	-37
-27	-35
-27	-34
-21	-29
-6	-13
-4	-11
10	4
33	28
50	44
42	36
26	20
36	31
58	53
45	39
30	23
16	10
14	8
3	-4
-13	-20
-9	-16
-15	-22
-36	-44
-49	-57
-52	-60
-42	-50
-40	-48
-48	-57
-52	-60
-46	-54
-45	-53
-54	-62
-42	-50
-37	-44
-29	-37
-40	-48
-50	-57
2	-3
100	97
150	147
257	260
403	406
391	391
323	319
-66	-80
-347	-363
-418	-433
-346	-359
-241	-252
-126	-134
-48	-56
-34	-41
-27	-34
-12	-19
-10	-17
-11	-18
-12	-18
-6	-13
1	-6
5	-2
6	1
13	7
18	12
11	5
14	8
21	15
32	26
29	22
22	16
31	25
44	38
39	33
49	43
58	53
72	67
70	64
70	65
80	75
89	84
88	83
108	104
118	114
132	127
129	126
153	150
169	167
186	184
194	192
215	213
227	225
239	238
247	246
258	257
280	279
285	285
284	284
292	292
286	285
291	291
263	261
234	233
209	207
181	178
140	136
110	105
88	83
58	52
28	21
16	9
6	-1
1	-7
-12	-20
-21	-28
-32	-39
-26	-33
-35	-43
-43	-49
-34	-41
-34	-42
-43	-51
-37	-45
-31	-38
-32	-40
-39	-46
-40	-48
-33	-41
-32	-41
-34	-42
-31	-39
-30	-37
-29	-36
-40	-48
-32	-39
-19	-27
-22	-30
-25	-31
-23	-30
-19	-26
-23	-30
-33	-39
-28	-34
-18	-25
-15	-21
-24	-31
-25	-32
-25	-31
-15	-22
-24	-31
-23	-30
-20	-27
-16	-23
-30	-38
-31	-39
-24	-31
-29	-37
-40	-47
-28	-35
-29	-36
-26	-33
-32	-40
-38	-46
-32	-40
-31	-38
-40	-48
-39	-47
-28	-36
-26	-33
-37	-45
-32	-40
-25	-33
-29	-37
-36	-44
-32	-39
-26	-33
-24	-32
-35	-43
-31	-39
-32	-39
-27	-35
-30	-37
-32	-40
-21	-29
-24	-32
-36	-44
-34	-41
-20	-28
-16	-23
-31	-39
-25	-33
-13	-21
-25	-32
-22	-29
-25	-32
-16	-24
-22	-30
-31	-38
-23	-29
-17	-24
-12	-20
-24	-31
-32	-39
-16	-24
-17	-24
-18	-26
-18	-26
-12	-19
-11	-19
-19	-27
-18	-25
-8	-15
-11	-19
-21	-28
-14	-21
-12	-18
-9	-16
-9	-16
-7	-14
7	1
22	16
32	26
53	48
66	61
54	49
43	38
56	52
73	68
64	59
40	34
32	25
26	19
16	10
6	-1
7	0
-10	-18
-22	-29
-28	-35
-25	-32
-28	-36
-28	-36
-36	-44
-39	-47
-28	-36
-25	-33
-36	-44
-32	-39
-22	-29
-23	-31
-27	-34
-28	-35
-4	-9
81	78
145	142
220	221
387	391
424	425
364	365
84	72
-266	-281
-389	-404
-348	-361
-244	-253
-132	-140
-54	-62
-25	-32
-1	-8
5	-1
14	8
7	0
14	9
31	24
27	20
22	16
27	21
43	38
47	40
38	33
45	39
50	44
58	53
55	49
62	57
66	62
71	67
70	65
75	71
86	82
85	80
91	87
100	97
113	109
112	108
111	108
132	128
145	141
150	146
155	152
175	172
191	190
205	203
213	212
230	229
245	244
258	257
262	262
272	271
282	283
288	287
288	288
297	298
299	299
289	288
263	263
251	250
225	224
198	195
154	150
132	128
112	108
91	87
60	53
46	40
39	33
27	21
8	2
1	-5
-4	-11
-6	-13
-7	-13
-17	-24
-6	-13
-13	-20
-16	-24
-15	-21
-7	-13
-8	-15
-18	-25
-19	-26
-2	-9
-3	-10
-16	-24
-15	-21
0	-6
-7	-13
-1	-7
-4	-11
-3	-10
6	-1
-10	-16
7	0
5	-2
10	3
0	-7
10	4
13	6
5	-2
2	-5
-1	-8
11	4
10	3
-3	-10
-10	-16
9	2
-1	-8
-5	-12
-2	-8
-4	-10
-5	-12
-5	-11
-4	-11
-3	-10
-7	-14
-15	-23
-13	-19
-4	-10
-9	-17
-14	-21
-10	-17
-8	-15
-4	-12
-14	-21
-10	-18
-8	-15
-14	-21
-9	-16
-13	-20
-8	-14
-5	-11
-15	-23
-14	-22
-11	-18
0	-7
-5	-13
-3	-11
-1	-8
-9	-17
-18	-24
-14	-21
-1	-8
-4	-11
-14	-21
-3	-10
-8	-15
-12	-20
-22	-30
-17	-23
-14	-21
-5	-12
-8	-15
-9	-16
-11	-19
-8	-16
-15	-22
-14	-21
-6	-14
-2	-10
-17	-24
-9	-16
-4	-10
-6	-12
-13	-20
-5	-11
1	-6
3	-4
-11	-17
-3	-10
6	-1
4	-2
-3	-10
3	-4
3	-4
4	-3
2	-5
7	0
19	13
30	25
45	40
75	70
82	77
67	62
56	50
66	63
87	82
73	67
47	41
36	30
35	29
26	20
17	11
27	20
12	4
-12	-19
-29	-36
-21	-28
-11	-17
-11	-19
-20	-27
-22	-29
-12	-18
-15	-22
-20	-27
-14	-21
-11	-18
-8	-15
-14	-20
-18	-24
24	19
106	104
169	166
244	246
403	407
447	449
371	374
106	93
-257	-272
-388	-404
-350	-362
-239	-251
-122	-129
-34	-40
-3	-10
2	-4
17	12
25	19
20	15
25	20
40	35
38	32
38	33
40	35
50	45
55	50
49	44
49	43
69	64
70	66
62	57
67	63
71	67
72	67
72	67
87	83
91	87
95	91
92	89
107	104
111	107
132	129
128	125
138	135
154	151
168	166
170	168
181	178
207	206
217	217
224	224
244	243
257	258
274	273
272	272
297	298
314	315
325	325
324	325
321	322
330	331
316	316
301	300
276	276
264	262
224	222
182	179
155	152
129	125
105	100
75	70
59	53
42	36
25	19
20	14
10	3
12	5
7	1
-1	-8
0	-7
-1	-8
-9	-16
-9	-16
-9	-16
-6	-13
-10	-17
-9	-17
-6	-12
0	-5
-4	-11
-4	-11
4	-3
7	-1
4	-2
6	-1
8	1
4	-3
9	2
5	-2
9	3
17	11
14	6
11	4
11	5
21	14
12	5
19	12
16	9
26	20
20	13
13	7
12	5
16	10
8	1
8	1
18	11
18	11
1	-6
2	-4
12	5
9	1
3	-4
0	-7
6	-1
10	3
3	-4
-3	-10
0	-8
2	-4
5	-3
-2	-8
3	-4
6	-1
3	-3
-3	-9
1	-6
0	-6
1	-6
0	-7
2	-4
4	-2
-9	-15
1	-6
7	0
4	-3
-1	-9
4	-3
6	0
12	6
9	2
4	-3
8	1
10	3
1	-5
4	-2
7	1
6	-1
10	3
8	1
5	-1
9	2
12	5
10	3
6	0
9	1
12	5
2	-4
7	-1
14	8
18	11
15	8
14	6
23	16
16	10
22	15
16	9
15	8
4	-3
6	0
23	16
20	13
16	10
17	11
12	5
26	20
17	11
15	8
23	17
30	23
17	10
15	8
18	12
26	20
25	19
27	22
33	28
42	37
56	52
80	76
104	100
103	98
83	78
76	71
99	95
113	109
98	93
78	73
70	65
58	52
44	38
42	37
50	44
35	28
16	9
0	-6
13	7
14	7
8	1
2	-5
7	0
13	7
16	9
11	5
13	6
26	20
22	17
16	9
23	17
63	60
160	157
210	208
308	312
460	464
460	461
389	387
27	13
-272	-287
-350	-365
-287	-298
-181	-191
-65	-73
20	13
30	24
41	35
53	47
56	50
57	51
62	57
71	65
68	63
70	65
73	68
82	76
80	76
87	82
94	90
95	90
93	88
96	91
100	95
106	102
114	110
112	108
115	111
128	124
126	122
130	127
145	142
160	156
160	157
161	159
174	171
188	186
196	194
208	206
227	226
236	236
258	257
267	266
285	285
299	299
312	313
319	320
330	331
352	353
356	358
355	357
362	365
369	370
360	361
333	333
313	313
293	293
259	257
222	220
190	187
164	160
130	126
110	105
93	88
77	71
64	60
55	49
49	43
44	38
44	37
35	29
32	25
27	21
28	22
30	24
28	22
30	24
31	25
22	15
24	18
38	33
33	27
26	20
31	25
38	32
31	25
33	26
36	31
48	43
44	38
35	29
45	39
58	52
40	34
40	34
45	39
54	48
52	46
43	37
48	42
48	43
49	43
48	42
40	35
46	41
44	37
39	34
42	36
40	34
36	30
36	30
37	32
42	36
38	31
29	23
32	26
38	32
39	33
26	20
23	17
30	24
32	26
28	22
31	25
38	32
28	21
17	10
27	21
41	35
30	24
24	18
28	22
29	22
24	18
26	19
39	33
39	32
25	19
23	17
24	18
32	27
26	21
22	16
32	27
31	25
17	11
16	10
20	13
28	21
28	21
18	12
22	15
30	24
23	16
21	15
32	26
25	18
17	9
12	5
17	11
35	29
41	35
23	17
21	14
22	16
27	21
21	15
28	23
33	26
24	17
20	15
29	23
24	17
22	15
28	22
35	29
29	23
27	20
23	17
32	27
44	38
38	31
50	45
69	64
88	84
100	95
90	85
87	82
98	94
106	101
101	96
89	84
78	72
65	60
54	49
47	41
38	31
35	28
15	8
10	3
6	-1
1	-6
1	-6
7	0
4	-3
7	1
0	-7
6	-1
3	-3
2	-5
7	0
12	5
11	4
14	9
73	69
163	161
202	201
330	332
459	462
419	421
323	316
-90	-104
-313	-328
-349	-363
-257	-269
-163	-172
-59	-66
8	2
29	23
31	24
31	24
40	34
49	44
50	44
47	40
60	55
70	64
66	61
65	59
67	62
78	73
77	72
82	76
95	89
92	86
89	83
87	81
90	84
103	99
102	97
107	103
118	113
122	117
116	112
128	124
134	130
154	151
157	154
161	157
182	179
191	189
195	192
212	210
229	227
246	245
255	254
262	261
278	278
296	296
290	289
295	295
312	312
322	322
313	313
310	309
305	305
287	286
263	262
236	235
209	206
185	181
157	154
125	121
103	98
87	82
63	59
54	48
45	39
35	29
26	19
17	10
21	15
20	13
9	1
4	-3
16	8
14	7
13	7
12	5
13	6
20	13
6	0
13	7
22	15
22	16
14	7
17	11
26	20
28	22
14	7
10	3
34	28
38	31
28	22
27	20
28	22
37	31
25	19
27	22
33	28
40	35
30	23
24	18
21	15
29	23
22	15
17	11
20	13
23	17
20	13
14	8
22	14
23	17
16	8
9	2
16	9
12	5
5	-2
13	6
14	8
8	1
3	-4
6	-1
7	0
12	5
7	1
7	0
13	5
10	2
1	-6
-7	-14
6	-1
12	5
2	-5
-1	-7
5	-2
5	-1
4	-2
2	-5
-1	-8
6	-1
0	-6
-2	-9
4	-3
10	3
0	-6
10	2
6	-1
5	-3
-1	-9
-3	-10
-3	-10
1	-5
0	-6
-2	-9
4	-2
7	0
-8	-14
-6	-13
5	-1
-2	-8
-1	-8
0	-7
4	-3
5	-2
0	-7
0	-7
2	-4
4	-3
-2	-9
-4	-11
3	-4
5	-2
4	-4
-5	-13
3	-3
1	-5
9	2
12	5
30	24
58	52
67	61
73	67
66	61
62	57
64	59
74	68
70	64
58	53
39	33
24	18
22	15
20	14
11	4
-10	-18
-14	-22
-23	-31
-31	-39
-30	-39
-27	-34
-20	-28
-34	-41
-35	-43
-21	-29
-19	-27
-23	-30
-30	-37
-22	-29
-14	-20
-17	-25
35	31
131	128
185	183
301	304
435	438
402	403
329	323
-78	-94
-342	-359
-404	-419
-320	-331
-213	-223
-106	-114
-38	-45
-17	-24
-7	-14
-2	-9
12	6
14	7
9	4
12	6
28	21
29	23
24	16
30	24
35	29
39	32
32	26
43	39
42	36
46	41
50	45
45	39
55	49
64	59
66	61
66	61
81	76
82	76
84	78
96	91
106	101
119	114
121	117
131	127
142	140
164	160
165	162
178	175
197	195
211	209
219	218
238	237
254	253
265	265
274	272
275	275
294	294
302	302
292	291
287	286
284	284
276	275
242	240
217	215
202	199
161	157
118	113
93	88
72	67
49	44
30	24
16	10
12	5
1	-5
-16	-24
-16	-24
-23	-31
-11	-19
-21	-30
-27	-34
-25	-32
-22	-29
-28	-37
-30	-38
-25	-33
-16	-24
-24	-32
-35	-43
-31	-39
-20	-28
-24	-31
-27	-35
-22	-29
-10	-17
-16	-24
-16	-23
-11	-19
-7	-15
-12	-20
-14	-21
-4	-11
-9	-17
-17	-24
-12	-18
-4	-11
0	-7
-7	-14
-14	-20
-3	-11
-2	-9
-12	-19
-17	-24
-13	-20
-12	-19
-18	-26
-17	-24
-15	-22
-8	-16
-21	-28
-24	-31
-21	-27
-14	-22
-27	-34
-26	-33
-11	-18
-20	-27
-28	-35
-27	-34
-21	-28
-15	-22
-18	-25
-22	-29
-19	-27
-16	-24
-22	-29
-21	-27
-19	-26
-19	-25
-23	-31
-24	-32
-17	-25
-11	-19
-17	-25
-20	-27
-16	-23
-19	-27
-22	-30
-25	-32
-19	-27
-15	-23
-22	-30
-23	-30
-17	-24
-16	-24
-20	-27
-20	-27
-24	-31
-13	-20
-24	-31
-19	-27
-16	-23
-15	-23
-22	-30
-18	-26
-13	-20
-11	-19
-22	-29
-21	-28
-19	-26
-18	-24
-14	-21
-20	-27
-16	-23
-4	-10
-14	-20
-10	-17
-6	-13
-13	-20
-19	-27
-14	-21
-10	-16
-6	-14
-19	-26
-19	-27
-10	-17
-6	-14
-17	-24
-18	-25
-4	-12
-6	-14
-15	-23
-9	-17
-6	-13
2	-5
-2	-10
7	0
26	20
55	50
67	62
55	49
50	44
61	54
64	59
63	58
58	52
44	37
23	17
18	11
14	8
13	6
8	0
-16	-24
-29	-36
-25	-32
-30	-38
-29	-36
-23	-32
-23	-31
-28	-35
-25	-33
-27	-34
-23	-31
-27	-35
-22	-29
-17	-25
-13	-21
17	12
111	108
169	167
264	266
409	413
438	439
373	373
69	56
-273	-289
-380	-395
-315	-327
-216	-226
-117	-125
-28	-36
-1	-8
13	6
5	-2
15	8
21	14
24	17
22	15
23	17
36	29
43	37
41	34
44	38
43	37
57	52
47	41
50	44
58	53
59	53
69	64
71	65
74	69
75	69
71	66
90	85
98	95
108	103
114	110
114	110
130	127
141	137
143	139
158	156
173	171
189	187
188	186
210	208
230	229
245	245
252	250
263	263
288	288
298	297
299	299
310	310
324	324
328	328
325	325
324	324
306	306
292	291
266	265
233	230
205	202
173	169
127	123
101	97
87	82
66	61
41	35
35	29
25	18
21	13
11	5
9	3
8	2
10	3
-4	-11
-3	-9
1	-5
0	-7
-3	-10
0	-6
-2	-8
4	-2
0	-6
-2	-8
6	-1
2	-5
-5	-12
-3	-10
12	5
11	5
5	-1
0	-6
9	3
23	17
10	4
14	8
20	14
24	17
17	11
12	7
27	22
22	15
14	8
26	20
26	20
22	16
17	11
16	9
17	11
15	9
13	6
11	5
15	9
13	7
4	-2
14	8
10	5
8	2
9	3
12	7
15	8
13	7
6	-1
5	-1
16	9
11	5
0	-6
12	6
15	9
11	4
4	-2
10	5
16	10
13	6
3	-4
3	-3
16	10
11	4
1	-6
6	0
20	13
15	10
12	5
5	-1
16	10
15	8
5	-2
16	9
18	12
14	8
4	-2
6	0
14	8
16	9
9	2
12	6
24	17
12	5
10	4
10	4
15	9
13	7
5	-1
10	4
12	5
13	6
1	-5
1	-5
13	7
6	-1
-1	-8
7	0
1	-5
9	2
2	-4
12	5
7	1
7	-1
-1	-8
10	4
30	24
46	40
59	54
75	70
67	62
62	57
61	56
76	71
74	69
59	54
41	35
33	27
33	26
20	14
14	7
-7	-13
-6	-13
-12	-20
-23	-30
-28	-34
-19	-26
-24	-32
-22	-29
-23	-30
-13	-19
-17	-25
-22	-29
-18	-25
-9	-16
-6	-13
-18	-24
33	29
125	121
165	164
269	272
415	418
404	405
350	345
-45	-59
-312	-328
-377	-391
-298	-310
-203	-212
-92	-99
-28	-35
6	-1
13	7
16	10
20	14
28	21
25	19
37	32
52	45
40	34
40	34
47	41
47	42
56	51
49	44
53	48
64	60
67	63
61	56
64	59
69	64
84	80
84	79
85	80
89	85
99	95
103	98
108	105
120	115
127	123
131	128
145	142
157	154
166	163
176	173
190	188
210	208
224	223
223	221
245	243
256	256
267	266
278	277
282	282
298	298
297	297
293	293
300	300
298	298
279	278
264	262
221	219
209	206
181	177
140	135
111	106
96	91
76	71
50	43
43	36
34	28
21	15
7	0
9	2
5	-1
7	0
-10	-16
-8	-14
7	0
2	-4
-8	-15
-9	-16
-2	-9
-2	-10
-9	-16
-7	-14
0	-7
4	-3
-5	-12
-3	-9
11	4
13	7
-4	-10
7	1
12	5
6	-1
5	-1
8	1
17	10
18	11
13	6
8	1
12	6
16	9
12	6
6	-1
20	13
15	9
8	1
8	2
8	1
4	-3
-3	-9
1	-5
2	-3
4	-2
-6	-12
-7	-13
6	-1
-1	-8
-15	-22
-4	-11
0	-6
-1	-7
-9	-16
-7	-13
1	-5
-2	-9
-13	-19
-5	-12
-3	-9
-8	-14
-4	-11
-1	-8
-1	-7
-5	-12
-10	-17
-11	-18
0	-7
-7	-14
-6	-14
-6	-13
-3	-10
-5	-11
-10	-17
-17	-25
-8	-15
-12	-20
-11	-18
-13	-20
1	-6
-10	-18
-9	-17
-11	-19
-9	-16
-9	-16
-9	-16
-3	-10
-2	-10
-5	-12
-8	-16
-9	-17
-2	-10
0	-7
-7	-15
-11	-18
0	-7
10	3
5	-2
15	9
37	31
64	59
71	65
75	70
64	59
66	61
76	71
79	74
68	62
60	54
41	34
33	27
34	27
28	22
10	3
-10	-18
-16	-23
-14	-22
-25	-32
-18	-24
-12	-18
-15	-22
-23	-30
-14	-21
-10	-17
-10	-17
-23	-31
-15	-22
-2	-9
-11	-19
-6	-12
72	69
153	150
209	209
351	355
452	455
390	393
242	232
-175	-190
-362	-378
-367	-381
-264	-276
-154	-162
-58	-65
-7	-14
10	3
11	4
18	12
30	23
34	27
32	26
39	33
44	38
47	41
44	38
48	43
58	53
53	47
57	53
61	56
70	65
74	69
65	61
73	68
79	74
88	82
87	83
97	93
105	101
107	103
104	99
115	111
135	131
139	136
147	144
154	152
172	170
180	177
189	188
204	202
225	224
235	234
247	246
258	258
282	281
283	283
295	295
303	303
303	304
314	315
311	311
309	309
297	296
279	277
244	242
215	213
187	183
157	152
122	117
89	85
80	76
62	56
33	26
26	19
13	7
18	11
0	-7
-5	-12
0	-7
-6	-14
-12	-19
-8	-15
-5	-12
-11	-18
-15	-23
-15	-23
2	-5
-9	-17
-10	-17
-11	-18
-2	-9
0	-7
-13	-19
-7	-14
-1	-8
5	-1
3	-3
4	-3
9	3
6	-1
-2	-8
6	0
20	14
8	1
0	-6
5	-1
15	8
5	-2
-4	-10
4	-2
10	3
3	-5
-4	-11
-3	-11
0	-8
-3	-10
-11	-18
-5	-13
-13	-21
-9	-17
-15	-23
-10	-17
-14	-20
-7	-14
-17	-25
-16	-24
-12	-18
-9	-17
-15	-23
-10	-17
-18	-25
-13	-20
-16	-23
-15	-22
-10	-17
-17	-25
-23	-30
-18	-25
-20	-28
-10	-17
-19	-25
-18	-25
-9	-17
-20	-28
-21	-28
-20	-27
-12	-19
-18	-26
-24	-31
-24	-32
-21	-28
-14	-22
-21	-29
-22	-29
-15	-22
-21	-30
-22	-30
-24	-32
-16	-23
-21	-29
-27	-34
-23	-30
-15	-23
-24	-30
-23	-30
-16	-23
-16	-23
-14	-21
-24	-31
-27	-35
-20	-26
-22	-30
-29	-34
-20	-27
-15	-22
-23	-31
-26	-33
-28	-35
-19	-26
-19	-26
-26	-34
-16	-23
-17	-24
-21	-29
-18	-25
-9	-15
-1	-7
24	19
35	30
54	49
58	51
31	24
28	22
51	45
58	53
36	30
21	15
11	5
-1	-7
1	-5
-9	-15
-11	-18
-30	-38
-45	-53
-58	-65
-50	-57
-45	-52
-50	-57
-48	-56
-44	-52
-46	-54
-50	-57
-46	-53
-47	-54
-42	-49
-37	-45
-46	-54
-19	-25
78	75
137	134
213	214
376	380
425	426
351	352
90	78
-283	-299
-410	-426
-369	-383
-271	-282
-161	-170
-67	-74
-30	-37
-31	-38
-22	-29
-19	-26
-14	-21
-10	-17
-1	-7
3	-4
0	-7
-1	-8
7	1
15	9
14	9
12	6
21	16
24	18
23	17
22	17
24	19
47	42
43	38
46	41
50	44
62	57
63	59
63	58
79	74
92	87
101	97
99	95
118	114
134	131
137	133
151	148
173	170
182	181
201	199
209	208
229	227
247	246
259	258
262	261
283	281
294	294
299	298
298	298
303	303
299	298
282	281
259	259
232	229
203	200
167	163
134	129
104	99
79	73
50	43
25	19
11	4
6	-1
-12	-20
-20	-28
-31	-39
-21	-28
-27	-35
-32	-40
-34	-42
-23	-32
-34	-41
-37	-45
-36	-44
-29	-38
-35	-42
-34	-42
-32	-39
-25	-33
-26	-34
-29	-37
-22	-29
-13	-21
-18	-26
-18	-25
-18	-25
-10	-17
-16	-24
-16	-23
-13	-20
-5	-13
-18	-25
-9	-17
-8	-15
2	-5
-1	-7
-11	-18
-5	-12
4	-4
-6	-14
-8	-17
-10	-17
-4	-12
-7	-14
-14	-21
-9	-16
-8	-16
-9	-17
-17	-24
-17	-25
-13	-20
-10	-18
-22	-30
-19	-27
-10	-18
-17	-26
-12	-19
-12	-18
-9	-16
-11	-18
-16	-24
-16	-23
-14	-22
-17	-24
-20	-28
-9	-15
-10	-18
-15	-22
-19	-26
-11	-19
-11	-19
-19	-26
-20	-27
-20	-28
-7	-14
-12	-19
-13	-21
-17	-24
-14	-21
-12	-20
-22	-29
-16	-23
-7	-15
-11	-19
-13	-20
-8	-16
-5	-12
-11	-18
-8	-14
-4	-11
-3	-10
-10	-18
-15	-22
-11	-17
-4	-12
-12	-19
-9	-16
-9	-14
1	-6
-4	-11
-10	-17
-6	-13
0	-7
-3	-10
-8	-15
-3	-10
-1	-9
-3	-10
0	-6
3	-3
18	12
36	30
48	43
71	66
73	68
51	45
50	44
74	69
81	76
62	56
50	44
36	30
24	17
16	10
8	1
13	7
-4	-11
-13	-20
-26	-34
-24	-30
-18	-26
-15	-23
-24	-31
-26	-32
-25	-33
-19	-26
-19	-26
-14	-21
-6	-13
-14	-21
-17	-25
-7	-13
71	68
151	149
197	197
343	347
456	459
373	375
252	242
-171	-186
-356	-372
-370	-384
-278	-290
-171	-180
-64	-70
-9	-16
2	-4
11	5
19	13
23	16
21	14
30	24
34	29
33	24
27	21
36	31
54	49
52	46
43	38
42	37
53	47
55	50
56	51
65	61
68	64
72	68
74	69
87	83
97	93
90	86
94	90
108	104
126	123
126	123
130	127
144	142
155	152
164	161
174	172
191	189
205	204
223	221
229	228
254	253
271	270
276	276
281	281
305	305
316	316
313	313
315	315
319	319
319	319
312	312
286	286
260	259
237	234
196	193
161	158
137	134
112	106
81	75
65	60
47	41
39	32
23	17
16	9
8	1
4	-3
-5	-13
-3	-10
-2	-9
8	1
-2	-10
-9	-16
-14	-22
3	-4
-4	-11
-3	-9
1	-5
-1	-7
-7	-13
-7	-14
0	-6
10	3
-1	-7
-5	-12
3	-3
10	4
17	10
11	5
11	5
24	18
17	11
11	4
13	7
13	7
18	12
17	10
17	10
13	6
11	4
1	-5
19	14
19	12
10	4
4	-2
16	10
14	8
4	-2
4	-2
5	-1
0	-7
-1	-7
5	-1
2	-3
11	5
1	-5
-2	-8
0	-5
8	2
4	-3
1	-5
5	-1
5	-1
-1	-7
1	-5
0	-7
8	2
3	-4
-4	-10
2	-4
5	-1
6	-1
3	-4
4	-2
6	-1
-2	-9
-8	-14
8	1
12	5
3	-4
-1	-8
-3	-9
6	-1
2	-5
-3	-9
4	-3
9	3
4	-3
-1	-7
5	-1
7	1
5	-1
8	2
6	0
15	9
6	-1
-2	-8
4	-2
16	9
6	-1
-3	-9
6	0
9	3
5	-2
11	4
10	4
16	9
9	2
9	2
14	8
35	30
49	44
58	54
77	72
78	73
64	59
64	60
78	74
88	83
71	66
58	53
48	42
42	35
22	16
15	9
23	16
2	-5
-8	-15
-22	-29
-24	-31
-11	-18
-17	-24
-18	-25
-17	-24
-12	-18
-20	-27
-21	-27
-12	-18
-7	-13
-4	-11
-16	-23
-13	-19
35	31
125	121
167	165
301	304
438	442
389	391
299	293
-81	-94
-315	-330
-366	-379
-297	-309
-175	-184
-62	-69
-24	-31
3	-4
18	12
23	17
24	17
29	24
38	33
43	38
41	35
39	33
48	42
54	48
52	46
55	49
57	52
66	60
60	55
64	59
72	67
81	77
80	74
80	76
93	89
102	97
99	94
97	93
113	110
120	116
120	116
126	123
141	137
156	153
161	158
172	170
188	186
205	203
209	208
219	216
240	239
254	254
258	257
262	261
281	280
291	291
290	289
289	288
297	297
296	296
282	282
269	268
245	243
226	223
190	187
156	152
141	136
116	112
91	85
69	63
58	52
46	40
32	25
19	13
16	10
10	4
5	-1
5	-1
6	-1
4	-2
2	-5
-7	-13
0	-7
3	-4
-4	-11
-2	-9
6	-1
6	-1
7	0
6	0
14	8
15	9
12	5
12	5
16	9
14	8
11	4
9	3
16	9
18	11
20	13
18	12
28	21
16	8
18	11
19	13
20	13
20	14
18	11
9	1
9	2
20	14
9	3
5	-2
10	4
12	5
6	-1
5	-1
12	5
13	6
9	2
5	-2
4	-2
5	-2
4	-2
5	-1
9	2
12	5
-3	-11
5	-2
5	-1
10	3
7	-1
6	0
8	1
8	1
-2	-9
5	-2
5	-2
14	7
2	-6
4	-3
5	-1
11	4
1	-5
1	-4
9	3
5	-1
-2	-9
-4	-10
9	3
6	0
-2	-8
-6	-12
12	7
12	4
-1	-9
-2	-9
3	-5
8	0
-1	-7
1	-5
8	1
11	5
1	-6
-2	-8
1	-5
11	5
1	-6
-2	-9
10	4
17	11
9	3
8	2
16	9
31	25
50	45
73	68
86	81
83	79
66	61
64	60
84	79
90	83
63	57
48	42
45	38
31	24
14	8
14	8
28	21
4	-3
-13	-21
-20	-27
-17	-25
-20	-28
-24	-31
-22	-29
-15	-22
-8	-15
-24	-32
-25	-33
-16	-24
-13	-20
-18	-25
-15	-22
-2	-8
78	74
155	151
208	207
360	364
467	470
382	383
240	230
-180	-196
-368	-385
-389	-403
-286	-298
-178	-187
-63	-69
-16	-23
-1	-8
6	-1
12	6
15	9
14	8
24	18
31	25
28	23
32	26
36	30
41	34
38	31
38	32
45	40
59	54
49	43
49	43
62	57
65	60
62	57
68	63
75	70
86	81
90	86
94	89
112	107
114	109
114	110
121	117
139	136
158	154
157	156
171	170
190	188
201	200
214	213
226	225
248	247
268	268
274	273
283	283
306	306
313	313
319	320
326	326
322	323
325	326
299	299
276	276
261	261
225	224
186	184
150	148
130	127
95	93
65	60
45	39
33	27
20	14
-2	-8
0	-6
-3	-9
-2	-8
-16	-21
-21	-28
-11	-18
-12	-19
-22	-28
-22	-29
-21	-28
-16	-23
-26	-32
-16	-21
-20	-27
-17	-24
-19	-26
-16	-22
-9	-16
-11	-18
-9	-16
-14	-21
-4	-11
-5	-12
-13	-20
-4	-11
-1	-7
1	-6
-5	-13
-3	-9
7	0
3	-4
-1	-8
0	-7
7	1
7	0
5	-2
-1	-8
-3	-10
4	-3
-5	-14
-7	-14
-6	-13
-2	-9
-4	-11
-6	-13
-13	-21
-4	-12
-12	-20
-10	-18
-4	-11
-2	-9
-12	-19
-17	-25
-13	-20
-12	-19
-25	-32
-14	-21
-10	-17
-9	-17
-17	-25
-16	-22
-5	-11
-6	-12
-13	-21
-16	-23
-10	-17
-7	-14
-14	-21
-20	-28
-15	-23
-4	-11
-20	-27
-19	-25
-5	-12
-6	-13
-13	-21
-20	-26
-9	-15
-10	-17
-20	-27
-17	-24
-12	-19
-11	-18
-14	-21
-11	-20
-10	-17
-8	-16
-19	-27
-11	-17
-13	-20
-14	-21
-14	-22
-19	-26
-11	-19
-11	-18
-16	-24
-15	-23
-18	-25
-11	-18
-14	-22
-17	-24
-14	-21
-5	-14
-15	-22
-19	-27
-12	-19
-18	-24
-23	-31
-19	-26
-15	-22
-10	-17
-19	-25
-19	-26
-20	-27
-18	-25
-16	-23
-14	-21
-1	-6
2	-4
2	-4
30	25
51	46
60	55
44	38
36	31
54	49
62	57
47	42
33	28
21	15
12	6
-3	-10
-10	-18
4	-3
-4	-13
-36	-45
-43	-51
-42	-50
-36	-45
-50	-59
-41	-49
-32	-40
-34	-42
-43	-51
-39	-47
-33	-41
-35	-43
-40	-48
-40	-48
-39	-46
1	-5
85	80
139	136
239	241
401	405
410	410
344	343
30	16
-308	-324
-409	-424
-350	-363
-247	-258
-132	-140
-59	-66
-30	-37
-11	-17
-6	-14
-15	-22
-7	-13
1	-5
3	-4
2	-4
4	-3
14	7
19	13
19	12
22	15
30	23
27	21
21	14
32	26
41	35
38	32
41	34
46	41
59	54
56	51
62	57
68	63
82	77
91	85
87	82
104	99
111	107
120	116
126	123
144	140
160	157
170	168
182	180
200	198
223	218
231	229
249	248
260	259
273	274
284	284
290	290
296	296
308	308
313	312
292	292
285	284
263	262
235	233
202	199
166	163
140	136
102	97
69	63
50	44
39	33
14	8
3	-3
0	-7
-9	-15
-17	-24
-28	-36
-29	-36
-24	-31
-23	-30
-23	-31
-34	-42
-26	-34
-28	-35
-38	-46
-38	-45
-27	-34
-27	-35
-37	-45
-27	-34
-27	-34
-29	-36
-32	-39
-26	-33
-25	-31
-22	-29
-26	-33
-24	-31
-20	-27
-21	-28
-18	-25
-20	-27
-22	-29
-13	-20
-23	-29
-16	-22
-5	-12
-13	-20
-21	-28
-11	-17
-10	-18
-21	-29
-29	-35
-14	-20
-10	-17
-20	-28
-30	-37
-26	-33
-25	-31
-24	-31
-22	-28
-24	-31
-28	-35
-27	-35
-35	-43
-31	-38
-30	-37
-22	-30
-35	-43
-30	-37
-18	-25
-26	-34
-38	-45
-34	-41
-31	-39
-34	-42
-36	-44
-31	-39
-23	-31
-26	-34
-42	-52
-36	-43
-26	-34
-25	-33
-30	-38
-30	-38
-28	-35
-20	-27
-32	-40
-34	-42
-28	-35
-26	-34
-29	-36
-29	-36
-22	-29
-22	-30
-36	-43
-32	-39
-24	-31
-27	-34
-32	-39
-30	-37
-22	-28
-22	-29
-32	-39
-30	-37
-28	-35
-26	-33
-25	-33
-29	-36
-26	-33
-26	-33
-20	-27
-16	-23
-20	-26
-16	-22
-28	-35
-29	-36
-18	-26
-24	-32
-28	-34
-17	-24
-8	-15
0	-8
8	1
27	22
45	40
56	49
39	34
44	40
55	50
59	54
40	34
28	22
21	14
7	1
4	-3
-9	-16
6	-2
-21	-28
-30	-37
-40	-47
-35	-43
-29	-36
-33	-40
-34	-42
-33	-41
-31	-39
-40	-48
-24	-31
-20	-27
-29	-36
-37	-45
-37	-44
-20	-28
10	5
91	87
144	140
235	236
399	403
408	409
356	355
42	28
-290	-306
-402	-418
-337	-350
-242	-253
-116	-125
-57	-63
-16	-22
-6	-13
5	-1
6	-1
9	3
22	17
26	20
26	20
31	25
32	27
36	30
35	30
43	38
43	37
52	47
48	42
49	44
60	55
60	54
66	62
67	63
81	76
79	74
72	68
80	76
101	97
99	95
110	106
124	121
130	127
131	128
137	133
151	149
175	173
190	187
189	187
200	198
230	229
238	237
236	235
257	256
272	271
282	282
273	273
287	288
297	297
285	285
272	272
270	270
251	250
227	225
196	193
165	161
141	136
109	104
84	79
64	60
54	49
34	28
21	14
14	7
9	3
3	-4
-3	-10
-7	-13
-4	-12
-8	-15
-14	-21
-14	-21
-3	-10
-4	-11
-19	-26
-17	-25
-8	-14
-2	-9
-5	-11
0	-6
4	-2
5	-2
-1	-8
2	-4
5	-2
7	1
5	-2
4	-3
4	-2
17	10
7	1
12	6
16	10
19	12
10	4
6	0
17	12
15	9
3	-3
10	5
8	0
-2	-9
9	2
4	-3
0	-7
2	-4
-2	-9
0	-6
-2	-9
-7	-14
-12	-18
-13	-20
-6	-13
-1	-8
-12	-19
-8	-14
-3	-10
-5	-13
-15	-22
-9	-15
0	-7
-7	-13
-11	-18
-8	-14
-11	-18
-8	-15
-8	-14
-10	-18
-4	-10
-15	-22
-17	-24
-9	-16
-6	-12
-9	-16
-10	-17
-14	-21
-10	-17
-17	-24
-25	-32
-13	-21
-13	-20
-9	-16
-15	-23
-11	-18
-5	-12
-7	-14
-9	-16
-16	-24
-8	-16
-7	-15
-9	-16
-6	-14
1	-6
-2	-10
-10	-16
-5	-12
-4	-10
-4	-11
-8	-15
-7	-14
-3	-10
-5	-13
-7	-14
1	-6
10	3
16	10
18	12
41	35
72	68
68	63
52	48
58	54
73	69
74	69
64	59
50	45
42	36
34	27
12	6
11	4
8	2
0	-7
-25	-32
-27	-34
-23	-30
-30	-37
-32	-39
-27	-33
-16	-24
-28	-35
-34	-41
-24	-30
-17	-24
-20	-27
-30	-37
-20	-27
-15	-22
1	-3
75	71
155	154
227	229
377	381
442	444
368	371
170	159
-235	-250
-402	-418
-382	-395
-270	-280
-154	-162
-60	-67
-12	-19
0	-6
6	0
6	-1
12	6
12	6
26	20
26	20
30	24
44	37
40	33
35	30
47	43
57	51
51	45
52	47
58	53
66	62
62	56
61	57
74	69
82	78
79	74
81	75
94	90
98	94
105	101
116	113
123	119
139	135
139	135
151	147
163	160
182	179
192	190
201	198
217	216
251	250
255	254
263	263
268	267
293	293
293	293
308	308
317	318
325	324
318	319
305	304
296	296
292	291
261	259
216	214
184	180
159	155
131	127
94	89
66	61
54	48
33	26
12	5
3	-4
13	6
0	-7
-11	-19
-10	-18
-9	-16
-17	-25
-25	-33
-20	-28
-16	-24
-23	-31
-23	-30
-22	-30
-22	-30
-9	-17
-19	-26
-22	-29
-11	-18
-17	-25
-17	-24
-15	-23
-13	-20
-14	-21
-11	-18
-5	-11
-15	-22
-9	-16
-4	-10
1	-5
1	-6
-1	-8
-12	-19
-3	-10
1	-6
-4	-12
-6	-14
-2	-9
-5	-12
-18	-25
-14	-22
-9	-16
-7	-14
-10	-17
-24	-31
-21	-28
-14	-21
-19	-26
-26	-33
-23	-30
-23	-30
-27	-33
-28	-36
-17	-24
-16	-24
-19	-27
-24	-32
-26	-33
-21	-29
-27	-36
-30	-38
-28	-35
-24	-31
-27	-34
-36	-43
-28	-35
-23	-30
-24	-31
-29	-36
-30	-37
-21	-28
-29	-36
-35	-43
-26	-34
-28	-35
-21	-29
-34	-42
-26	-34
-24	-31
-22	-31
-28	-36
-29	-36
-27	-34
-25	-33
-31	-39
-24	-31
-26	-33
-19	-27
-34	-42
-32	-40
-24	-31
-27	-35
-31	-39
-28	-36
-22	-31
-25	-33
-31	-39
-21	-29
-23	-30
-28	-36
-31	-38
-27	-34
-22	-29
-19	-27
-25	-34
-30	-37
-20	-28
-30	-37
-31	-39
-26	-34
-23	-30
-18	-25
-27	-35
-29	-36
-22	-29
-29	-36
-19	-26
-23	-31
-17	-24
-22	-29
-23	-30
-17	-25
-2	-8
-2	-9
10	4
39	35
61	57
47	41
25	20
39	35
64	60
60	55
35	30
24	19
16	10
5	-1
-4	-11
-10	-16
1	-4
-26	-33
-51	-59
-46	-54
-40	-47
-43	-52
-40	-48
-43	-51
-40	-48
-45	-51
-51	-59
-37	-45
-30	-37
-37	-44
-40	-47
-33	-40
-2	-7
81	77
142	139
229	229
383	386
420	420
346	347
82	69
-283	-298
-394	-410
-357	-370
-253	-264
-141	-149
-56	-63
-24	-31
-14	-21
-8	-15
-7	-13
-7	-13
2	-5
8	1
10	3
5	-1
15	9
24	18
25	19
24	18
30	24
26	20
40	33
31	25
33	28
46	41
48	42
46	41
54	49
60	55
72	66
67	63
79	74
89	85
92	87
101	97
110	106
121	118
133	129
134	131
154	151
174	172
190	188
195	193
214	213
235	234
244	243
249	248
267	266
283	283
290	290
292	292
304	304
310	310
299	298
285	284
272	270
237	235
211	207
179	176
144	141
111	107
85	80
56	51
43	36
23	17
6	0
-6	-14
-13	-20
-9	-16
-20	-27
-32	-39
-21	-28
-18	-26
-23	-30
-28	-36
-24	-32
-18	-25
-28	-36
-29	-37
-33	-40
-27	-34
-28	-36
-23	-30
-19	-26
-21	-29
-23	-31
-27	-34
-19	-25
-15	-22
-20	-27
-17	-24
-14	-21
-3	-10
-9	-15
-10	-18
-17	-25
0	-7
-1	-9
-10	-17
-6	-13
0	-7
-2	-9
-13	-20
-9	-16
-6	-12
-12	-20
-19	-25
-12	-19
-8	-15
-16	-23
-21	-28
-20	-27
-9	-16
-8	-15
-25	-32
-19	-27
-18	-26
-21	-28
-21	-29
-22	-30
-21	-29
-26	-33
-25	-33
-23	-30
-13	-20
-22	-30
-29	-37
-21	-29
-14	-21
-11	-19
-26	-33
-22	-30
-18	-25
-23	-30
-20	-27
-20	-27
-18	-25
-17	-25
-23	-30
-18	-26
-17	-25
-21	-28
-30	-37
-16	-23
-12	-19
-21	-28
-19	-26
-15	-22
-10	-16
-16	-23
-21	-27
-16	-23
-14	-21
-17	-24
-23	-31
-17	-24
-7	-14
-17	-24
-19	-26
-16	-23
-11	-18
-14	-21
-19	-25
-13	-20
-12	-19
-13	-21
-15	-21
-3	-10
-1	-8
-8	-15
-20	-27
-13	-19
2	-4
-5	-13
-12	-21
-18	-26
-8	-14
-6	-13
-5	-11
21	15
47	41
52	47
62	57
63	55
52	47
54	49
72	67
76	71
55	49
34	28
24	18
20	14
14	7
6	-1
-4	-11
-23	-31
-21	-29
-33	-40
-27	-34
-26	-34
-22	-30
-27	-35
-24	-31
-28	-35
-22	-30
-26	-33
-26	-33
-22	-29
-12	-19
-19	-27
5	0
90	87
154	151
226	227
374	378
404	405
370	371
57	44
-288	-303
-393	-407
-335	-348
-238	-248
-134	-142
-49	-56
-14	-21
-7	-14
5	-1
19	12
14	8
14	7
17	10
23	17
32	26
36	30
33	28
33	28
40	34
41	35
40	35
49	44
58	53
50	44
49	43
61	55
72	67
70	65
70	65
79	75
91	86
88	84
97	92
105	101
117	113
119	116
120	117
135	133
156	154
165	163
174	171
182	180
198	196
207	205
228	227
235	234
245	244
252	252
257	256
271	271
287	287
290	290
280	280
274	273
270	268
240	238
218	215
200	197
178	175
139	135
112	106
89	84
72	67
54	48
33	25
23	16
13	6
3	-3
-9	-16
-12	-19
-6	-12
-13	-20
-23	-30
-11	-19
-8	-15
-11	-18
-17	-24
-17	-25
-14	-21
-22	-29
-21	-29
-5	-12
-1	-8
-6	-13
-6	-13
-2	-9
1	-6
2	-5
0	-7
-2	-8
3	-4
1	-6
-1	-8
9	2
13	6
11	3
0	-7
-6	-12
14	7
3	-4
-2	-8
2	-5
8	1
-3	-10
-6	-12
2	-4
7	1
-4	-12
-13	-19
-9	-15
1	-5
-3	-9
-14	-20
-8	-16
-10	-18
-9	-17
-17	-25
0	-7
0	-7
-9	-17
-15	-22
-9	-16
-4	-11
-10	-17
-9	-16
-7	-14
-7	-14
-9	-17
-10	-17
-8	-15
-7	-14
-11	-19
-14	-21
-5	-12
2	-4
-6	-13
-12	-19
-2	-8
-6	-13
-6	-13
-11	-19
-1	-8
4	-3
-5	-11
-8	-14
1	-6
-4	-10
-7	-15
-6	-13
0	-7
1	-6
-9	-15
-11	-17
0	-6
2	-4
-1	-8
-13	-19
3	-3
3	-3
5	-1
2	-5
-3	-9
4	-2
4	-2
16	10
41	36
57	53
63	60
68	63
59	55
67	63
78	74
78	73
63	59
51	45
34	28
23	17
22	15
23	18
16	9
-16	-24
-24	-30
-24	-31
-24	-31
-26	-33
-19	-26
-23	-31
-32	-39
-30	-36
-20	-26
-14	-20
-20	-28
-24	-30
-16	-24
-13	-20
-14	-20
62	59
148	145
192	191
330	333
438	440
371	373
236	227
-181	-195
-371	-386
-380	-394
-278	-290
-164	-173
-77	-84
-23	-30
2	-4
-1	-7
7	1
16	12
23	17
22	16
32	27
31	25
33	27
35	30
40	34
50	45
51	47
48	43
47	42
53	49
63	59
64	60
61	56
69	64
78	74
80	75
78	73
86	83
104	100
101	97
104	100
119	115
123	119
127	124
140	138
156	153
172	168
174	171
183	181
207	206
222	221
227	226
241	240
258	258
268	268
269	269
278	278
288	288
297	298
297	296
282	281
273	272
262	261
232	230
203	201
176	174
150	146
118	114
89	84
68	63
58	52
33	26
17	10
15	8
4	-3
-3	-10
-9	-17
-11	-18
-7	-14
-22	-28
-15	-22
-14	-21
-16	-23
-16	-22
-15	-22
-12	-18
-8	-15
-14	-20
-12	-19
-11	-17
-7	-13
-7	-14
-5	-12
-3	-9
5	-1
-9	-16
-6	-13
6	-1
10	4
4	-2
6	1
16	9
14	6
3	-4
5	-2
14	8
8	2
7	0
7	1
8	2
4	-2
-4	-11
-7	-14
-2	-8
10	3
-5	-11
-3	-9
0	-6
-1	-8
-8	-14
-4	-10
3	-4
0	-6
-6	-13
-8	-14
3	-3
4	-2
-2	-9
-5	-12
-1	-7
-2	-9
-12	-19
-1	-7
1	-5
2	-5
-8	-14
-4	-10
-2	-9
-4	-10
-5	-12
-9	-16
-2	-9
0	-6
-7	-12
-2	-9
3	-3
6	1
-6	-12
-5	-12
-3	-9
3	-2
-1	-7
-4	-10
-1	-7
8	2
-5	-12
-4	-10
2	-5
3	-4
1	-5
-6	-13
4	-2
9	3
1	-5
1	-5
6	-1
7	0
0	-6
-2	-8
4	-1
5	-2
4	-3
-3	-10
6	-1
8	1
0	-7
0	-7
3	-2
10	3
2	-5
5	-2
9	2
7	0
2	-5
1	-5
16	11
25	19
24	18
47	41
74	69
89	84
58	53
55	50
74	70
96	91
74	68
57	52
49	43
37	31
23	16
13	7
28	21
13	6
-15	-22
-14	-20
-13	-19
-14	-21
-16	-23
-21	-28
-12	-19
-13	-20
-13	-20
-15	-22
-9	-17
-6	-13
-9	-15
-11	-18
10	5
97	93
161	158
229	230
383	387
463	465
371	373
178	166
-211	-226
-356	-373
-352	-364
-252	-263
-139	-147
-39	-46
2	-5
3	-3
18	12
29	24
20	14
23	17
33	27
40	34
39	33
40	34
48	43
50	44
54	49
53	48
60	54
65	61
63	58
63	59
74	69
75	70
81	76
85	81
84	80
102	97
94	90
101	96
112	108
121	117
124	120
135	132
156	154
170	167
171	168
181	179
201	199
213	211
215	213
231	231
254	253
266	265
280	280
289	289
301	301
309	309
312	311
310	310
320	321
321	321
304	304
293	293
265	264
237	236
202	199
168	166
137	134
112	107
80	75
63	58
48	41
36	30
18	11
13	6
7	0
4	-3
-6	-13
-8	-15
-4	-11
-7	-14
-13	-20
-12	-20
-5	-12
-9	-16
-17	-24
-16	-23
-12	-19
-1	-8
-12	-19
-11	-17
-7	-13
-1	-7
-8	-15
-9	-15
4	-2
3	-3
0	-8
1	-5
7	1
10	3
4	-2
4	-3
12	6
12	5
3	-4
0	-6
13	7
13	6
3	-4
1	-5
-2	-8
11	4
-7	-14
-5	-11
-1	-7
-1	-8
-7	-15
-13	-19
-1	-9
-8	-15
-9	-17
-13	-19
-7	-13
-7	-14
-11	-18
-3	-10
-5	-13
-1	-8
-13	-20
-14	-21
-9	-16
-11	-18
-18	-25
-17	-23
-12	-18
-14	-20
-18	-25
-13	-20
-10	-17
-5	-12
-17	-24
-13	-20
-10	-17
-15	-22
-9	-16
-14	-21
-11	-18
-10	-17
-21	-28
-17	-24
-15	-22
-11	-18
-13	-19
-12	-19
-15	-22
-13	-20
-18	-25
-9	-16
-9	-17
-5	-12
-16	-22
-10	-15
-11	-19
-8	-13
-10	-17
-15	-22
-10	-16
-9	-15
-13	-19
-9	-16
-8	-13
-5	-12
-14	-21
-13	-19
-4	-9
-11	-17
-19	-26
-14	-20
-3	-9
0	-6
0	-6
13	7
47	42
66	62
58	52
36	31
47	43
68	63
65	61
53	47
44	38
28	21
10	4
0	-6
7	1
4	-2
-29	-37
-37	-46
-34	-41
-33	-40
-35	-43
-44	-51
-38	-46
-34	-41
-40	-47
-38	-45
-31	-37
-30	-37
-32	-39
-30	-37
-28	-34
8	4
86	83
151	149
235	237
383	387
399	399
346	346
47	33
-292	-307
-396	-411
-344	-356
-237	-247
-126	-134
-48	-56
-14	-21
-9	-15
-3	-9
-1	-8
0	-7
8	2
12	6
15	9
19	13
24	18
24	18
18	13
30	25
40	34
41	35
38	33
40	35
45	40
50	44
49	44
53	48
64	60
64	60
73	68
74	70
86	82
98	93
99	95
101	97
116	113
127	124
136	133
152	149
164	161
178	176
185	181
197	195
221	219
231	229
241	240
250	249
267	266
278	277
280	280
286	285
290	290
288	288
284	283
272	271
251	249
230	228
197	194
166	163
143	141
112	108
77	72
55	49
41	35
34	28
16	10
6	0
5	-1
-14	-21
-25	-32
-17	-24
-16	-24
-17	-24
-26	-33
-20	-27
-11	-18
-15	-22
-29	-36
-20	-26
-14	-22
-17	-25
-24	-31
-25	-32
-20	-28
-11	-18
-10	-16
-9	-16
-7	-13
-7	-14
-16	-23
-12	-19
3	-3
2	-5
-3	-9
0	-6
2	-4
-2	-9
-7	-14
-2	-9
10	4
10	3
-4	-12
-9	-15
0	-7
3	-3
1	-6
-5	-11
-5	-12
-8	-15
-13	-21
-13	-20
-6	-13
-8	-15
-4	-11
-6	-13
-5	-12
-5	-12
-20	-26
-18	-24
-12	-20
-8	-16
-18	-25
-11	-17
-10	-17
-7	-14
-14	-21
-6	-13
-4	-11
-10	-17
-18	-25
-16	-23
-4	-12
-1	-8
-10	-17
-9	-17
-8	-15
-7	-15
-8	-14
0	-7
-6	-13
-10	-18
-15	-22
-7	-14
-5	-12
-2	-8
-1	-8
-5	-11
2	-5
-7	-13
-9	-17
-1	-7
5	-1
5	-1
-4	-11
-4	-10
4	-2
7	0
-4	-11
0	-5
4	-2
2	-5
1	-6
12	6
20	14
35	29
47	41
58	53
79	74
71	66
58	53
67	63
88	83
73	67
53	47
53	47
47	41
30	23
22	15
23	16
1	-6
-12	-20
-17	-24
-16	-24
-11	-18
-13	-20
-23	-30
-16	-22
-7	-14
-10	-16
-19	-26
-11	-18
-3	-10
-8	-15
-15	-22
-17	-24
42	38
138	134
179	179
312	316
438	441
382	383
265	258
-124	-137
-324	-339
-334	-347
-264	-275
-162	-170
-64	-70
-15	-21
4	-3
16	10
29	23
31	25
26	20
30	23
47	41
42	36
45	39
54	49
59	54
62	57
52	47
51	46
65	61
73	68
66	62
63	57
69	64
74	70
82	77
84	80
96	92
99	95
95	90
109	105
120	117
124	120
125	122
135	133
152	149
157	154
167	165
184	181
192	190
201	200
207	205
219	217
237	235
240	239
253	252
260	260
270	270
279	279
277	276
275	275
280	280
269	268
248	247
235	233
208	206
182	179
153	149
127	123
105	100
82	77
59	53
47	40
37	31
26	19
13	6
11	5
8	2
9	3
-1	-8
-1	-7
5	-2
0	-7
-7	-13
-4	-10
0	-7
5	-2
0	-6
5	-1
13	7
9	2
8	2
5	-2
11	5
13	6
7	1
9	2
5	-2
19	13
13	7
15	9
15	9
23	16
17	10
17	10
13	7
23	17
11	5
11	5
16	10
14	7
3	-4
6	0
10	4
8	1
-2	-8
2	-5
2	-5
-2	-8
-6	-12
2	-5
6	0
6	0
0	-6
3	-3
1	-5
2	-5
6	0
1	-4
2	-3
4	-2
-2	-8
0	-6
5	-1
2	-5
-1	-8
-3	-9
8	2
-2	-8
-4	-11
-4	-11
6	0
3	-4
-5	-12
-8	-16
5	-1
-5	-11
-4	-11
-9	-15
1	-5
1	-5
-6	-13
-8	-15
-2	-9
6	-1
-5	-12
-5	-13
0	-7
-2	-9
-10	-17
-14	-20
-6	-12
-9	-16
-8	-15
-2	-9
-1	-7
-2	-9
-13	-20
-10	-17
-3	-10
-7	-14
-6	-12
-1	-7
5	0
15	9
32	27
54	49
74	69
66	61
43	37
54	49
78	74
69	63
45	40
38	32
33	27
17	11
7	0
2	-3
6	-1
-23	-31
-33	-40
-26	-33
-27	-34
-29	-36
-33	-40
-34	-41
-30	-37
-28	-35
-32	-38
-23	-30
-26	-32
-15	-22
-27	-34
-23	-30
31	28
127	126
178	177
288	291
431	435
393	393
313	308
-73	-88
-338	-354
-411	-427
-338	-351
-224	-233
-102	-109
-36	-43
-17	-24
-11	-18
4	-2
4	-2
2	-4
15	9
20	14
19	13
17	11
27	21
28	23
34	28
32	27
34	29
38	33
36	30
40	35
45	39
55	50
56	51
55	50
63	58
74	70
74	69
66	62
85	82
97	94
99	95
105	101
116	113
127	124
135	131
139	136
160	157
180	178
189	187
192	191
211	210
233	232
243	242
245	245
258	259
277	276
277	277
277	277
284	284
281	280
272	271
250	249
226	225
203	200
169	165
136	132
108	103
79	74
52	46
26	20
14	7
4	-3
-15	-21
-22	-29
-30	-37
-32	-40
-32	-39
-39	-46
-37	-45
-40	-47
-43	-50
-49	-57
-42	-50
-39	-46
-44	-52
-49	-57
-43	-50
-43	-51
-50	-58
-52	-60
-41	-48
-39	-46
-43	-51
-46	-54
-41	-49
-33	-40
-38	-46
-39	-47
-31	-38
-25	-33
-26	-34
-30	-38
-33	-40
-20	-28
-25	-32
-30	-37
-33	-40
-27	-34
-31	-38
-33	-39
-35	-42
-31	-37
-34	-42
-41	-48
-36	-43
-36	-44
-40	-48
-48	-55
-46	-53
-44	-51
-45	-51
-54	-60
-43	-50
-43	-50
-43	-51
-55	-62
-51	-59
-48	-55
-45	-53
-53	-60
-51	-58
-44	-51
-46	-53
-50	-57
-42	-49
-44	-52
-49	-57
-45	-52
-46	-53
-35	-42
-47	-55
-52	-60
-51	-59
-41	-49
-42	-49
-43	-51
-46	-54
-45	-53
-46	-54
-49	-57
-46	-53
-38	-46
-45	-53
-48	-55
-42	-50
-40	-48
-42	-51
-47	-55
-48	-55
-40	-47
-41	-49
-42	-50
-44	-51
-34	-41
-46	-53
-45	-52
-41	-48
-37	-45
-44	-51
-40	-47
-39	-47
-31	-38
-32	-40
-42	-49
-41	-48
-33	-39
-29	-36
-28	-34
0	-6
27	21
40	35
30	23
17	11
28	22
43	37
38	32
22	16
9	3
3	-4
-13	-20
-20	-28
-20	-27
-23	-32
-52	-61
-57	-65
-51	-59
-61	-68
-65	-72
-62	-69
-54	-62
-60	-68
-65	-72
-54	-62
-48	-56
-48	-56
-56	-64
-47	-55
-40	-47
-6	-12
83	79
142	140
246	248
393	397
389	388
325	323
-15	-30
-329	-345
-418	-435
-350	-363
-246	-256
-138	-146
-58	-65
-35	-43
-21	-29
-26	-32
-17	-24
-10	-16
-4	-10
-4	-11
1	-6
7	1
17	11
11	4
8	2
12	6
19	12
26	20
23	17
25	19
34	28
37	31
37	32
45	40
61	54
53	47
56	50
74	69
79	74
82	77
87	82
100	96
115	111
116	112
122	118
137	133
157	154
165	162
181	179
202	201
216	214
225	223
234	233
251	250
272	271
277	275
282	283
290	290
298	298
291	289
276	275
265	264
250	247
212	209
176	172
143	139
119	114
84	78
52	46
35	28
23	16
1	-6
-14	-22
-20	-28
-21	-29
-30	-38
-38	-47
-37	-45
-37	-46
-46	-55
-51	-59
-42	-50
-44	-52
-45	-54
-51	-60
-41	-48
-36	-45
-47	-55
-48	-55
-43	-51
-34	-41
-34	-43
-42	-51
-35	-43
-28	-36
-36	-44
-35	-43
-30	-38
-26	-34
-24	-33
-29	-37
-31	-39
-21	-29
-28	-36
-27	-36
-25	-33
-20	-27
-26	-34
-30	-38
-22	-30
-19	-27
-29	-37
-34	-42
-25	-33
-23	-31
-30	-38
-33	-41
-33	-41
-28	-35
-39	-48
-40	-48
-37	-44
-32	-40
-42	-50
-46	-53
-41	-49
-39	-46
-37	-46
-45	-54
-40	-48
-42	-50
-41	-49
-45	-54
-38	-45
-36	-44
-40	-48
-48	-56
-41	-49
-34	-42
-40	-48
-47	-55
-41	-48
-36	-42
-43	-52
-40	-49
-34	-42
-34	-42
-44	-52
-42	-49
-41	-48
-35	-43
-38	-45
-33	-40
-34	-42
-38	-46
-45	-54
-46	-53
-38	-45
-30	-37
-46	-53
-45	-53
-39	-47
-32	-39
-39	-46
-38	-45
-38	-46
-37	-44
-34	-42
-36	-44
-33	-40
-26	-34
-35	-44
-39	-46
-34	-41
-25	-32
-29	-36
-37	-44
-30	-37
-29	-36
-34	-42
-31	-37
-23	-30
-8	-15
-2	-8
19	13
44	39
54	48
29	23
22	16
45	39
55	50
45	39
27	21
15	9
13	6
-5	-12
-10	-16
-8	-15
-19	-27
-39	-47
-44	-51
-38	-45
-40	-48
-46	-53
-40	-47
-40	-47
-36	-44
-37	-44
-40	-48
-41	-49
-33	-41
-36	-43
-32	-40
-23	-31
26	20
116	113
161	158
273	274
409	411
367	366
295	290
-103	-118
-337	-354
-396	-413
-320	-333
-217	-226
-100	-108
-43	-50
-18	-25
-7	-15
-2	-8
-3	-10
4	-3
17	11
18	11
12	6
20	14
28	22
38	32
30	24
27	21
37	32
43	37
38	31
38	32
47	42
53	47
57	52
59	55
67	63
76	71
73	67
77	73
95	90
102	98
102	98
105	102
117	113
135	132
141	137
148	145
160	158
178	176
190	188
199	196
214	212
235	233
243	242
260	258
268	268
281	281
281	281
277	276
292	293
287	288
278	277
258	257
240	239
222	220
186	183
152	148
124	120
98	92
70	65
49	43
35	29
17	12
8	1
-2	-8
-6	-13
-6	-13
-18	-26
-20	-28
-19	-27
-11	-18
-26	-34
-27	-36
-26	-34
-20	-28
-31	-38
-28	-36
-24	-31
-15	-22
-25	-33
-20	-28
-14	-21
-15	-23
-20	-29
-17	-24
-7	-14
-7	-13
-15	-22
-13	-20
-4	-12
1	-6
-10	-17
-8	-14
5	-1
7	1
-6	-13
-8	-14
0	-6
0	-7
-5	-10
2	-4
-4	-11
0	-7
-15	-22
-15	-21
-5	-11
-2	-9
-20	-29
-13	-20
-6	-12
-7	-14
-16	-23
-20	-27
-14	-20
-8	-14
-14	-21
-11	-19
-7	-14
-4	-10
-9	-16
-17	-25
-16	-24
-8	-15
-9	-16
-10	-17
-10	-16
-6	-13
-12	-19
-11	-18
-6	-13
-5	-13
-10	-17
-19	-26
-12	-18
-11	-18
-10	-18
-16	-24
-8	-15
-11	-18
-16	-23
-14	-20
-2	-9
-2	-10
-15	-22
-15	-22
-3	-10
-4	-11
-10	-16
-9	-16
-6	-13
-1	-8
-6	-13
-2	-9
4	-3
2	-4
-10	-17
-11	-18
-3	-10
7	0
-3	-10
-9	-15
0	-5
4	-3
-6	-12
-3	-9
8	2
18	12
17	11
25	20
51	45
61	57
62	57
59	54
63	58
77	72
84	79
73	68
65	61
66	60
49	42
40	33
38	32
33	27
7	-1
-6	-13
-2	-10
-2	-10
-6	-15
-14	-22
-15	-22
-10	-17
-11	-19
-16	-23
-4	-11
-3	-9
-5	-12
-7	-14
-5	-13
-5	-12
23	17
105	102
164	162
251	252
407	412
429	431
372	371
83	70
-256	-271
-365	-380
-302	-314
-203	-213
-106	-113
-33	-40
-2	-7
19	14
18	13
34	28
40	34
45	39
44	38
46	40
55	50
60	55
58	53
61	56
66	62
69	64
70	65
69	64
82	77
88	83
85	81
85	80
100	96
102	98
103	99
115	111
120	115
126	123
127	124
134	130
145	142
152	149
155	153
161	158
182	179
199	197
209	207
218	217
236	235
249	248
255	255
267	266
276	277
294	294
294	294
299	299
308	309
312	314
312	312
301	301
292	291
278	277
242	241
213	211
191	188
164	161
131	127
112	107
104	99
88	82
61	54
44	38
38	32
37	31
28	23
20	14
25	20
25	20
15	10
19	14
18	13
19	13
24	19
23	17
25	19
26	20
20	14
22	17
31	25
30	25
33	27
27	21
27	22
41	35
33	28
37	31
38	32
41	35
36	31
42	36
46	40
44	37
39	32
32	26
43	37
42	36
34	28
36	31
38	32
37	32
30	24
23	18
25	19
31	25
33	28
29	24
32	26
38	32
18	12
22	16
35	30
30	24
26	20
21	15
35	30
36	31
24	19
27	22
27	22
31	25
29	22
21	15
33	27
37	31
28	22
28	22
31	25
32	26
26	20
23	18
23	17
31	25
27	21
26	20
33	27
35	30
24	18
28	22
33	27
36	30
29	22
26	20
33	27
34	27
25	18
25	19
32	26
38	32
23	18
31	25
31	25
34	28
28	21
29	22
30	23
34	28
26	20
29	23
34	27
34	27
23	16
23	17
33	28
36	29
31	25
27	22
32	25
34	29
37	30
31	25
29	23
32	26
34	28
37	31
61	57
80	74
93	88
104	100
99	94
91	85
92	87
106	101
101	96
87	81
70	64
54	48
52	46
43	36
37	31
32	26
20	13
9	1
0	-7
2	-5
3	-3
9	2
2	-4
1	-6
9	3
8	1
5	-1
10	4
15	8
10	3
14	8
73	70
166	164
217	217
330	334
463	468
435	436
355	352
-54	-67
-317	-332
-378	-391
-287	-299
-187	-195
-73	-79
7	1
29	24
25	19
28	22
41	35
46	40
48	43
53	48
57	52
56	51
55	49
60	54
63	58
76	69
66	61
75	69
85	80
85	80
77	72
84	78
90	84
104	99
100	95
101	97
112	107
118	114
121	117
127	124
140	136
148	144
157	154
165	162
178	175
196	193
203	200
216	214
234	233
247	246
257	256
275	275
289	289
302	302
308	307
316	315
332	333
337	338
332	333
334	335
328	328
314	313
282	280
256	255
229	227
195	192
157	154
123	119
110	105
88	83

62	56
50	45
39	33
28	21
9	3
15	8
11	5
9	2
-2	-8
2	-5
6	0
6	-1
-1	-9
-4	-10
5	-1
12	4
-3	-10
-6	-13
1	-5
6	0
1	-6
0	-7
13	7
9	2
2	-5
6	-1
14	7
19	13
11	4
5	-2
19	12
16	9
15	8
17	10
12	5
17	10
8	1
10	3
18	12
17	10
9	3
5	-1
11	4
12	5
4	-3
0	-7
10	3
12	5
1	-6
-6	-13
-1	-7
-2	-9
-6	-13
-7	-14
-3	-9
-3	-10
-10	-17
-12	-18
-10	-17
-4	-11
-17	-24
-8	-15
-5	-11
-10	-16
-11	-18
-13	-20
-9	-16
-10	-17
-23	-30
-18	-25
-9	-16
-8	-15
-17	-24
-15	-21
-10	-17
-12	-19
-18	-26
-21	-29
-15	-22
-7	-14
-13	-20
-11	-18
-14	-21
-18	-25
-20	-27
-18	-25
-14	-21
-16	-23
-23	-30
-17	-25
-11	-18
-16	-23
-20	-28
-15	-22
-13	-20
-15	-23
-23	-31
-21	-28
-10	-17
-15	-22
-24	-30
-17	-24
-11	-18
-16	-23
-19	-26
-23	-30
-15	-21
-15	-22
-25	-33
-12	-18
-14	-21
-14	-21
-11	-18
-10	-18
-7	-14
-2	-10
-5	-12
5	-1
43	38
62	57
63	58
50	44
46	40
55	49
67	63
64	59
47	41
34	27
16	9
12	5
6	-1
9	4
-7	-15
-24	-31
-26	-33
-30	-38
-40	-48
-33	-40
-24	-31
-28	-35
-36	-43
-30	-37
-28	-35
-22	-30
-27	-35
-27	-35
-20	-28
-17	-23
26	21
122	119
176	175
284	286
418	422
391	391
319	315
-62	-77
-339	-355
-399	-413
-315	-326
-213	-223
-106	-114
-32	-39
-5	-12
-4	-11
-4	-12
-1	-8
18	11
13	6
16	10
27	21
30	24
32	25
25	18
34	27
36	30
37	31
34	28
41	36
46	41
53	47
50	44
58	52
64	59
70	66
75	70
76	71
91	87
95	91
94	90
104	101
119	116
124	120
125	121
138	136
164	161
173	169
180	178
196	195
216	215
232	231
236	234
250	249
264	264
273	271
275	274
293	292
308	308
308	307
292	292
287	287
275	275
259	257
219	216
188	186
166	162
132	128
97	92
69	64
50	44
31	23
5	-2
-4	-12
-6	-12
-18	-26
-27	-35
-28	-36
-28	-34
-26	-34
-34	-41
-42	-49
-34	-41
-28	-34
-35	-43
-36	-43
-31	-38
-31	-38
-32	-39
-34	-42
-26	-33
-29	-36
-31	-39
-29	-35
-19	-26
-25	-33
-42	-51
-30	-36
-15	-21
-19	-27
-24	-32
-21	-29
-20	-28
-20	-28
-21	-29
-20	-27
-14	-21
-11	-20
-23	-31
-21	-28
-17	-25
-20	-28
-33	-40
-24	-31
-19	-26
-21	-29
-29	-37
-30	-37
-25	-32
-27	-34
-33	-42
-38	-45
-25	-33
-31	-40
-43	-51
-41	-48
-33	-40
-31	-39
-37	-44
-34	-41
-32	-39
-36	-43
-39	-46
-36	-44
-29	-36
-35	-43
-44	-51
-36	-43
-38	-45
-33	-40
-39	-46
-36	-43
-35	-42
-36	-43
-40	-48
-45	-53
-29	-36
-30	-38
-38	-45
-37	-44
-30	-38
-36	-44
-42	-49
-35	-42
-28	-34
-29	-37
-39	-46
-32	-39
-34	-42
-35	-43
-40	-47
-34	-41
-30	-37
-27	-35
-29	-37
-25	-32
-27	-34
-33	-41
-38	-46
-33	-40
-18	-25
-23	-30
-33	-40
-35	-44
-28	-35
-15	-23
-23	-31
-18	-26
-23	-32
-27	-35
-25	-33
-24	-32
-20	-27
-15	-22
-3	-9
18	12
37	32
54	48
42	35
29	23
46	40
63	58
48	43
34	28
26	20
19	12
2	-4
-3	-10
-1	-8
-8	-17
-34	-42
-43	-51
-40	-48
-41	-48
-39	-47
-40	-48
-39	-45
-37	-45
-49	-57
-36	-44
-27	-35
-30	-37
-27	-34
-28	-35
-31	-39
-12	-18
58	55
134	132
201	200
357	361
419	419
350	351
141	128
-248	-263
-396	-413
-363	-377
-253	-263
-148	-157
-70	-77
-29	-36
-7	-15
-5	-12
1	-6
4	-3
15	9
26	20
16	10
27	20
32	26
30	24
32	26
31	26
42	36
44	38
35	29
48	43
59	53
60	54
48	42
54	49
72	67
75	69
76	71
79	74
97	92
96	91
86	82
104	99
119	115
125	122
134	131
144	139
153	150
165	161
177	175
195	193
210	207
221	220
222	221
239	238
254	253
255	255
261	258
274	274
280	279
276	274
263	262
258	257
248	247
221	218
191	188
168	163
149	145
109	105
81	76
64	59
45	38
28	21
14	8
0	-7
-3	-10
-13	-20
-21	-28
-27	-35
-20	-28
-21	-30
-45	-53
-29	-37
-30	-37
-28	-35
-27	-35
-25	-33
-24	-32
-22	-30
-25	-32
-22	-29
-20	-26
-22	-29
-26	-33
-17	-25
-6	-14
-14	-22
-16	-24
-12	-20
-8	-15
-8	-16
-17	-25
-11	-17
-10	-18
-10	-18
-10	-17
-5	-12
-9	-16
-17	-24
-16	-23
-18	-26
-12	-19
-18	-26
-27	-35
-23	-30
-25	-32
-24	-32
-21	-27
-20	-28
-20	-28
-27	-34
-32	-39
-26	-33
-26	-34
-34	-43
-32	-40
-26	-34
-20	-28
-22	-30
-29	-37
-30	-37
-23	-30
-27	-34
-29	-38
-33	-41
-21	-28
-33	-42
-35	-43
-38	-45
-29	-38
-30	-37
-34	-42
-38	-46
-23	-30
-31	-39
-33	-41
-29	-36
-32	-39
-33	-41
-42	-50
-35	-43
-33	-41
-27	-35
-37	-45
-38	-46
-25	-33
-28	-35
-37	-45
-36	-43
-31	-39
-32	-40
-46	-53
-35	-43
-31	-38
-29	-35
-39	-47
-41	-48
-33	-40
-28	-35
-33	-40
-31	-38
-23	-30
-32	-40
-30	-37
-29	-37
-10	-16
-5	-11
16	10
33	28
48	43
37	30
27	21
40	35
56	49
45	39
22	15
9	2
3	-5
-1	-8
-13	-21
-15	-23
-20	-28
-47	-56
-53	-61
-46	-54
-45	-53
-52	-61
-63	-71
-63	-70
-51	-59
-50	-58
-58	-66
-55	-63
-45	-53
-38	-47
-59	-67
-47	-56
2	-2
94	90
143	140
253	255
403	406
379	378
302	297
-72	-88
-348	-366
-444	-461
-369	-383
-259	-270
-132	-140
-63	-70
-35	-43
-29	-36
-22	-29
-16	-24
-12	-20
-13	-19
7	0
-1	-8
2	-5
6	-1
18	10
20	12
14	6
19	12
30	23
23	16
26	20
34	28
35	29
35	29
41	34
52	45
61	55
64	59
63	58
77	72
91	86
88	82
88	83
103	98
118	113
128	124
133	129
155	151
166	163
179	176
185	182
209	206
226	224
226	224
243	241
255	253
267	266
274	273
273	271
277	275
286	286
274	273
253	251
236	233
211	207
183	179
142	137
114	109
91	85
63	57
36	28
17	10
12	5
-3	-10
-12	-19
-14	-22
-17	-25
-31	-38
-39	-47
-38	-45
-25	-33
-44	-52
-44	-52
-38	-46
-31	-40
-31	-39
-31	-39
-27	-35
-26	-34
-26	-34
-33	-40
-16	-23
-20	-27
-26	-34
-27	-34
-27	-34
-6	-14
-21	-28
-16	-23
-11	-17
-9	-16
-5	-11
-11	-18
-7	-14
-7	-14
-4	-12
-10	-16
-8	-15
-4	-11
-10	-17
-14	-21
-10	-17
-11	-18
-13	-21
-15	-23
-16	-23
-17	-25
-17	-25
-18	-25
-18	-26
-19	-26
-18	-26
-22	-28
-18	-25
-12	-20
-13	-21
-21	-28
-19	-27
-16	-23
-16	-23
-19	-26
-21	-28
-4	-12
-11	-19
-19	-27
-15	-23
-9	-17
-16	-23
-16	-24
-6	-13
-8	-15
