2942
3418
4508
5930
7050
6814
5568
4262
3448
3118
3134
3584
4710
6332
7972
8426
7610
6030
4348
3278
3002
3454
4542
5976
7102
6894
5646
4312
3470
3156
3200
3666
4750
6322
7918
8344
7496
5908
4272
3242
2930
3368
4438
5856
6988
6786
5550
4212
3408
3126
3190
3682
4870
6538
8164
8616
7776
6174
4454
3376
3060
3528
4626
6070
7218
6992
5712
4370
3560
3274
3302
3740
4826
6390
7976
8406
7592
6000
4332
3292
3020
3498
4602
6074
7224
7004
5748
4410
3564
3276
3312
3766
4870
6456
8052
8480
7670
6088
4390
3284
2964
3424
4534
6000
7166
7000
5804
4468
3640
3342
3358
3794
4880
6448
8048
8510
7718
6136
4400
3294
2970
3426
4518
5958
7096
6906
5598
4394
3582
3276
3324
3778
4874
6452
8052
8494
7696
6140
4436
3342
3026
3474
4570
6022
7216
7080
5886
4564
3686
3336
3340
3752
4832
6406
8032
8500
7720
6162
4460
3366
3050
3504
4612
6038
7158
6954
5750
4454
3658
3376
3406
3834
4924
6504
8148
8632
7804
6206
4496
3412
3082
3518
4602
6050
7218
7082
5880
4534
3688
3370
3372
3806
4874
6414
7994
8476
7690
6126
4432
3368
3068
3512
4594
6046
7212
7054
5828
4490
3648
3332
3380
3856
4972
6576
8192
8644
7842
6264
4556
3432
3062
3458
4510
5970
7168
7046
5886
4566
3758
3480
3542
3962
5000
6540
8146
8642
7852
6256
4512
3402
3076
3522
4606
6016
7180
7048
5852
4540
3712
3416
3450
3872
4956
6522
8128
8590
7768
6178
4454
3334
3000
3448
4558
6058
7292
7170
5948
4594
3730
3404
3412
3840
4938
6538
8172
8696
7946
6398
4574
3546
3186
3604
4656
6070
7238
7076
5896
4570
3724
3406
3424
3840
4924
6514
8156
8662
7902
6352
4670
3574
3252
3682
4716
6148
7330
7200
5994
4646
3784
3454
3484
3940
5074
6698
8354
8874
8094
6534
4832
3708
3360
3766
4794
6224
7452
7384
6248
4964
4134
3810
3804
4202
5242
6778
8378
8888
8122
6574
4874
3774
3422
3834
4914
6360
7550
7416
6178
4802
3920
3560
3554
3968
5050
6622
8258
8764
7958
6342
4596
3470
3134
3604
4738
6208
7430
7332
6114
4762
3888
3534
3506
3878
4918
6464
8086
8618
7892
6372
4672
3562
3216
3596
4602
5994
7174
7054
5854
4526
3674
3342
3340
3740
4798
6358
7984
8520
7764
6206
4464
3322
2978
3420
4502
5956
7200
7126
5946
4614
3758
3430
3442
3844
4896
6446
8080
8598
7830
6278
4562
3408
3050
3460
4542
5982
7172
7056
5876
4578
3768
3466
3376
3882
4924
6474
8114
8670
7932
6380
4646
3490
3136
3558
4632
6092
7356
7332
6224
4940
4168
3908
3964
4432
5566
7172
8812
9354
8806
7296
5668
4630
4384
4936
6132
7710
9032
9336
8190
6978
6200
5904
5862
6140
6994
8346
9296
9548
9750
7964
6104
4678
3984
4028
4736
5898
6916
6662
5344
3858
2870
2426
2344
2652
3642
5172
6854
7466
6808
5346
3676
2572
2262
2734
3876
5430
6794
6846
5794
4510
3684
3406
3460
3880
4948
6508
8152
8734
8016
6492
4778
3634
3268
3654
4686
6120
7350
7270
6076
4732
3866
3530
3548
3954
4996
6542
8186
8770
8070
6540
4818
3652
3268
3668
4740
6188
7416
7346
6158
4786
3886
3532
3550
3964
5022
6554
8174
8736
8022
6494
4776
3644
3300
3698
4756
6194
7424
7344
6146
4786
3926
3602
3594
3978
5030
6592
8244
8850
8158
6656
4956
3808
3422
3788
4746
6194
7418
7388
6234
4864
4000
3664
3676
4068
5140
6700
8326
8904
8156
6622
4882
3720
3346
3770
4852
6276
7512
7484
6340
4996
4112
3754
3762
4160
5196
6746
8390
9002
8270
6708
4968
3812
3434
3824
4854
6288
7530
7500
6350
5002
4122
3790
3796
4162
5182
6716
8348
8944
8242
6724
5006
3878
3540
3940
4942
6330
7564
7556
6436
5098
4202
3858
3890
4326
5418
6972
8592
9198
8462
6924
5210
4048
3638
3986
5038
6486
7738
7724
6598
5264
4370
4014
4036
4454
5500
7054
8700
9296
8612
7104
5394
4236
3862
4236
5270
6690
7944
7920
6754
5368
4462
4106
4122
4532
5588
7156
8800
9342
8946
7388
5712
4560
4192
4586
5622
7052
8266
8216
7072
5702
4796
4442
4442
4828
5862
7392
8994
9422
9504
7512
5792
4618
4214
4614
5684
7128
8422
8446
7334
6020
5152
4810
4812
5208
6266
7838
9150
9480
9682
8006
6262
5060
4660
5040
6074
7514
8770
8786
7656
6328
5436
5052
5020
5396
6424
7956
9222
9512
9714
8014
6302
5124
4708
5058
6086
7512
8764
8774
7622
6262
5352
4970
4934
5288
6290
7816
9186
9490
9692
7880
6126
4882
4430
4744
5726
7098
8334
8324
7184
5814
4904
4500
4448
4776
5736
7212
8788
9334
8702
7186
5450
4246
3830
4168
5140
6500
7730
7688
6498
5076
4118
3718
3710
4088
5098
6578
8184
8822
8176
6662
4896
3686
3304
3686
4728
6150
7410
7400
6246
4894
3978
3582
3516
3846
4818
6310
7938
8572
7910
6414
4686
3506
3120
3508
4536
5954
7206
7190
6040
4646
3736
3368
3356
3700
4690
6192
7828
8462
7790
6280
4548
3384
2994
3340
4320
5702
6964
6992
5880
4532
3606
3226
3206
3566
4560
6090
7756
8438
7790
6302
4598
3430
3040
3376
4342
5716
7006
7066
5956
4592
3670
3288
3250
3594
4594
6132
7820
8478
7790
6262
4480
3246
2818
3164
4188
5630
6936
6970
5844
4478
3562
3204
3198
3546
4520
6038
7716
8398
7756
6252
4530
3354
2942
3272
4240
5624
6888
6902
5758
4388
3508
3158
3166
3552
4578
6130
7826
8492
7828
6314
4564
3366
2954
3298
4300
5712
6984
6992
5834
4458
3554
3170
3152
3494
4468
5986
7694
8408
7764
6282
4564
3392
2982
3300
4258
5598
6870
6930
5840
4492
3570
3172
3148
3492
4468
5948
7606
8298
7662
6214
4528
3386
2974
3282
4238
5582
6840
6900
5810
4482
3572
3206
3236
3596
4564
6090
7776
8492
7840
6336
4612
3440
3042
3370
4364
5744
7000
7004
5854
4438
3456
3032
3004
3366
4372
5908
7580
8282
7662
6186
4446
3252
2862
3234
4240
5658
6946
6962
5806
4422
3514
3108
3070
3396
4352
5862
7530
8244
7624
6134
4370
3188
2794
3138
4130
5546
6878
6978
5888
4504
3534
3078
3024
3354
4350
5874
7550
8254
7634
6166
4450
3248
2808
3158
4178
5584
6876
6960
5850
4452
3496
3084
3042
3394
4382
5900
7574
8292
7688
6212
4450
3184
2730
3040
4018
5420
6710
6750
5652
4302
3398
3010
2964
3326
4338
5874
7556
8306
7720
6274
4524
3258
2776
3070
4062
5464
6764
6832
5712
4322
3376
2972
2934
3244
4170
5644
7338
8102
7528
6074
4340
3126
2672
2970
3960
5386
6746
6852
5738
4342
3380
2944
2866
3186
4164
5678
7376
8122
7528
6066
4326
3110
2656
2950
3908
5306
6628
6734
5628
4232
3258
2850
2838
3164
4112
5604
7288
8020
7430
5998
4290
3110
2676
2978
3962
5384
6702
6778
5648
4240
3294
2898
2854
3164
4116
5610
7306
8084
7538
6112
4376
3114
2636
2928
3918
5316
6638
6740
5622
4200
3216
2796
2774
3138
4120
5626
7316
8046
7418
5956
4240
3036
2590
2904
3916
5328
6650
6754
5654
4256
3302
2900
2874
3226
4198
5692
7384
8128
7512
6032
4282
3020
2538
2824
3802
5196
6518
6626
5544
4166
3196
2778
2752
3112
4116
5640
7338
8088
7508
6036
4288
3034
2554
2826
3764
5166
6512
6646
5556
4142
3192
2818
2818
3186
4158
5668
7340
8092
7462
5954
4162
2894
2406
2690
3682
5120
6482
6616
5522
4138
3182
2758
2716
3058
4034
5564
7268
8028
7446
6014
4300
3096
2658
2970
3920
5274
6570
6672
5572
4170
3216
2726
2778
3080
4002
5488
7180
7954
7372
5918
4154
2906
2438
2748
3732
5134
6460
6584
5538
4194
3272
2852
2752
3032
3948
5436
7162
7968
7402
5972
4240
3008
2544
2840
3790
5152
6478
6632
5578
4192
3248
2848
2800
3102
4038
5520
7208
7994
7424
5966
4170
2878
2398
2696
3666
5052
6406
6590
5574
4214
3262
2844
2808
3124
4062
5562
7254
8028
7428
5966
4206
2954
2466
2732
3698
5122
6532
6708
5620
4204
3236
2820
2786
3086
4026
5486
7170
7964
7390
5954
4212
2970
2498
2794
3788
5192
6542
6702
5638
4238
3256
2836
2788
3084
4014
5506
7206
7996
7390
5892
4116
2874
2406
2682
3660
5044
6392
6570
5534
4174
3228
2812
2770
3078
4004
5488
7156
7936
7356
5876
4100
2834
2368
2654
3614
5026
6394
6562
5500
4112
3156
2750
2752
3102
4052
5532
7202
8028
7498
6086
4358
3116
2540
2898
3838
5218
6536
6688
5606
4154
3134
2704
2668
2990
3922
5424
7148
7994
7466
6028
4284
2998
2468
2716
3626
4998
6368
6556
5518
4154
3240
2844
2788
3066
3988
5474
7176
8012
7474
6046
4282
3002
2530
2828
3798
5180
6518
6678
5624
4230
3240
2786
2718
3004
3916
5404
7124
7976
7466
6044
4256
2962
2472
2756
3700
5072
6400
6584
5562
4216
3286
2876
2828
3134
4062
5516
7196
8004
7450
6012
4278
3042
2550
2790
3718
5082
6436
6656
5646
4304
3368
2962
2902
3174
4072
5520
7162
7938
7346
5894
4148
2916
2426
2662
3624
5050
6444
6638
5600
4234
3278
2856
2792
3072
3990
5472
7186
8026
7494
6070
4324
3038
2538
2812
3758
5158
6536
6730
5664
4262
3288
2874
2818
3092
4008
5482
7146
7940
7386
5972
4246
2980
2468
2724
3656
5024
6404
6692
5736
4404
3444
3002
2930
3194
4098
5476
7280
8118
7592
6180
4418
3100
2570
2822
3758
5154
6548
6766
5718
4316
3326
2876
2798
3106
4040
5536
7234
8066
7546
6122
4384
3108
2618
2870
3810
5182
6534
6756
5724
4360
3374
2888
2792
3074
4008
5516
7240
8110
7600
6152
4356
3016
2464
2680
3630
5060
6476
6718
5674
4278
3306
2886
2832
3152
4110
5634
7346
8224
7736
6366
4650
3370
2874
3114
3974
5278
6626
6858
5840
4456
3486
3048
2976
3252
4124
5584
7328
8252
7772
6378
4676
3414
2936
3182
4102
5482
6864
7106
6096
4716
3732
3300
3250
3534
4424
5874
7568
8420
7890
6446
4672
3368
2844
3094
4020
5358
6716
6944
5924
4548
3578
3146
3088
3358
4248
5700
7364
8184
7664
6262
4528
3246
2716
2938
3844
5200
6584
6818
5790
4382
3388
2930
2846
3116
4010
5458
7156
7998
7472
6062
4286
2998
2498
2756
3710
5124
6480
6752
5742
4350
3346
2902
2840
3110
4000
5480
7196
8068
7542
6126
4366
3088
2576
2796
3702
5068
6420
6664
5678
4302
3320
2894
2850
3138
4060
5554
7290
8186
7698
6308
4540
3232
2662
2848
3754
5124
6510
6794
5826
4444
3430
2912
2784
3046
3948
5430
7166
8068
7588
6186
4432
3144
2626
2882
3876
5312
6732
7040
6128
4856
3984
3646
3654
3970
4864
6344
8084
9054
8736
7474
5852
4672
4296
4726
5852
7384
8836
9238
8192
6794
5738
5164
4978
5100
5856
7192
8746
9342
8750
7012
4864
3142
2300
2310
3048
4288
5580
5784
4720
3286
2280
1814
1740
1980
2878
4380
6180
7154
6728
5406
3748
2532
2082
2372
3332
4768
6258
6596
5636
4286
3360
2952
2902
3212
4128
5598
7316
8236
7786
6420
4658
3330
2786
2996
3864
5198
6548
6824
5824
4408
3394
2944
2886
3172
4110
5640
7408
8326
7860
6456
4694
3400
2886
3134
4034
5398
6770
7040
6046
4624
3586
3106
3000
3198
4032
5472
7200
8132
7654
6246
4500
3216
2724
3020
4002
5406
6816
7108
6084
4652
3620
3144
3060
3332
4212
5680
7404
8328
7888
6518
4728
3378
2860
3084
3962
5306
6676
6940
5936
4550
3584
3164
3100
3380
4276
5734
7448
8364
7896
6514
4756
3428
2858
3068
3990
5354
6758
7074
6118
4764
3780
3320
3236
3506
4416
5898
7600
8496
8022
6616
4850
3498
2952
3188
4138
5508
6894
7200
6220
4822
3810
3376
3342
3622
4474
5886
7580
8508
8064
6704
4958
3608
3014
3234
4216
5638
7070
7396
6404
4956
3906
3406
3350
3650
4564
6022
7722
8646
8168
6792
5052
3724
3198
3438
4356
5748
7158
7442
6456
5070
4068
3610
3540
3804
4704
6186
7928
8892
8464
7076
5344
4042
3512
3730
4610
5952
7340
7672
6730
5278
4312
3816
3734
3998
4882
6330
8034
8946
8546
7202
5454
4142
3652
3956
4930
6306
7670
7938
6938
5530
4518
4032
3964
4274
5172
6630
8346
9220
9166
7616
5894
4540
3926
4106
5014
6414
7864
8244
7320
5928
4886
4398
4314
4550
5400
6846
8564
9312
9516
7868
6158
4828
4272
4496
5410
6762
8108
8400
7452
6084
5074
4590
4498
4746
5610
7054
8746
9360
9580
7962
6224
4888
4284
4452
5330
6684
8094
8452
7494
6078
5048
4534
4414
4652
5508
6972
8668
9334
9528
7778
6026
4674
4082
4240
5112
6442
7808
8098
7078
5616
4528
3996
3892
4152
5024
6480
8170
9076
8630
7230
5432
4078
3532
3728
4594
5910
7270
7558
6574
5158
4136
3674
3606
3850
4696
6122
7832
8806
8398
7018
5202
3764
3124
3302
4184
5534
6914
7218
6232
4804
3760
3276
3194
3448
4294
5720
7412
8388
7982
6634
4888
3446
2952
3094
3952
5290
6704
7050
6090
4654
3606
3108
3000
3254
4120
5590
7352
8366
7966
6600
4830
3466
2898
3080
3972
5360
6820
7192
6220
4782
3744
3256
3170
3382
4200
5604
7282
8264
7868
6544
4816
3492
2932
3126
4020
5406
6824
7172
6202
4770
3718
3228
3120
3318
4142
5570
7306
8332
7948
6620
4906
3578
2990
3154
3986
5278
6654
7006
6058
4676
3674
3220
3142
3362
4186
5628
7366
8386
8004
6664
4920
3546
2934
3102
4000
5382
6826
7190
6262
4902
3902
3416
3300
3500
4296
5704
7398
8390
8006
6666
4900
3536
2950
3140
4006
5366
6786
7182
6254
4858
3808
3296
3208
3458
4304
5746
7466
8458
8048
6704
4962
3600
2982
3136
4014
5386
6842
7230
6288
4858
3812
3320
3250
3524
4370
5778
7482
8492
8100
6760
4980
3590
2988
3174
4046
5404
6838
7242
6330
4954
3950
3500
3428
3546
4460
5854
7566
8578
8188
6834
5064
3694
3108
3284
4160
5522
6952
7322
6370
4960
3904
3406
3326
3570
4394
5820
7548
8576
8220
6900
5140
3744
3110
3242
4114
5476
6896
7278
6298
4842
3796
3310
3228
3484
4332
5768
7500
8556
8210
6884
5102
3696
3108
3292
4184
5522
6952
7370
6432
5020
3976
3476
3378
3594
4422
5862
7604
8648
8274
6910
5114
3690
3082
3250
4098
5424
6832
7224
6292
4914
3886
3378
3272
3508
4376
5850
7598
8662
8316
6976
5218
3850
3250
3374
4182
5486
6918
7334
6424
5012
3972
3494
3440
3678
4500
5960
7700
8756
8346
6964
5190
3786
3150
3296
4124
5440
6870
7296
6412
5022
3954
3420
3318
3552
4368
5794
7518
8554
8174
6820
5040
3650
3054
3268
4156
5510
6914
7296
6376
4988
3960
3500
3424
3668
4502
5924
7632
8688
8344
7018
5250
3852
3232
3396
4244
5452
6960
7354
6434
4988
3916
3412
3326
3572
4402
5844
7588
8674
8366
7076
5344
3942
3306
3428
4254
5576
6974
7372
6460
5050
4022
3542
3436
3634
4444
5882
7602
8634
8264
6944
5194
3820
3170
3268
4100
5430
6870
7310
6448
5062
3974
3430
3328
3574
4432
5890
7616
8688
8354
7034
5228
3790
3150
3306
4164
5510
6952
7404
6536
5152
4116
3616
3540
3776
4574
5968
7662
8722
8370
7062
5302
3884
3228
3340
4160
5484
6928
7416
6558
5178
4136
3648
3546
3750
4550
5974
7682
8728
8374
7078
5356
3974
3324
3454
4274
5572
6996
7440
6558
5158
4082
3556
3498
3758
4584
6000
7694
8756
8448
7168
5430
4040
3408
3524
4346
5678
7092
7518
6614
5218
4168
3652
3554
3782
4566
5946
7622
8720
8436
7156
5398
3954
3232
3290
4120
5460
6912
7434
6584
5176
4082
3532
3394
3586
4388
5776
7490
8586
8370
7132
5430
4042
3402
3576
4430
5740
7156
7614
6774
5390
4286
3736
3606
3812
4572
5950
7658
8754
8476
7178
5396
3936
3266
3380
4216
5538
6990
7462
6574
5132
4054
3552
3474
3718
4532
5934
7606
8662
8390
7140
5440
4072
3454
3620
4462
5768
7196
7680
6798
5356
4248
3688
3546
3740
4520
5912
7638
8746
8468
7182
5428
4016
3360
3454
4252
5596
7076
7582
6740
5358
4274
3716
3586
3806
4588
5986
7696
8822
8540
7244
5452
4012
3348
3452
4270
5620
7098
7606
6758
5368
4294
3736
3606
3788
4578
5982
7706
8810
8496
7188
5426
4004
3354
3478
4320
5644
7102
7634
6784
5358
4286
3814
3734
3890
4614
5964
7642
8712
8384
7094
5358
3944
3322
3476
4330
5656
7092
7584
6728
5344
4278
3754
3622
3808
4590
5994
7698
8802
8510
7224
5462
4044
3398
3534
4358
5642
7068
7558
6688
5258
4158
3660
3594
3818
4594
5980
7688
8830
8610
7384
5662
4226
3532
3608
4422
5728
7178
7698
6862
5478
4382
3848
3738
3916
4674
6066
7786
8930
8684
7396
5616
4148
3442
3528
4312
5582
7000
7510
6682
5296
4234
3714
3606
3808
4590
5994
7694
8826
8592
7362
5650
4214
3544
3672
4524
5846
7286
7768
6904
5492
4396
3800
3608
3756
4486
5864
7584
8746
8528
7288
5544
4090
3398
3518
4372
5764
7238
7748
6890
5440
4302
3750
3658
3886
4676
6064
7762
8888
8654
7402
5646
4222
3574
3664
4446
5754
7206
7726
6910
5494
4378
3796
3624
3800
4580
5978
7708
8882
8648
7392
5662
4226
3534
3636
4468
5780
7210
7748
6948
5574
4516
3976
3862
4062
4818
6162
7850
8988
8800
7558
5828
4412
3730
3820
4640
5994
7498
8106
7360
5976
4846
4260
4088
4196
4870
6180
7846
8962
8754
7522
5826
4450
3844
3982
4782
6058
7472
7974
7138
5732
4636
4100
4012
4198
4938
6278
7938
9036
8816
7548
5798
4344
3634
3694
4462
5740
7178
7734
6908
5482
4378
3790
3642
3830
4596
5966
7634
8764
8500
7230
5492
4064
3404
3512
4354
5702
7184
7738
6894
5456
4298
3732
3658
3906
4682
6050
7728
8880
8646
7412
5670
4182
3466
3538
4320
5644
7106
7662
6836
5388
4226
3628
3484
3656
4414
5794
7508
8724
8560
7356
5616
4138
3428
3512
4310
5632
7090
7682
6898
5490
4348
3746
3586
3748
4508
5888
7604
8816
8638
7438
5738
4278
3560
3598
4376
5696
7210
7846
7150
5848
4808
4312
4262
4532
5366
6828
8600
9356
9594
8838
7072
5702
5128
5364
6314
7740
9120
9460
9664
7938
6824
6158
5866
5878
6442
7670
9102
9456
9676
8432
6356
4512
3444
3212
3752
4858
6156
6626
5736
4258
3078
2492
2282
2536
3294
4706
6494
7742
7560
6378
4726
3356
2716
2858
3732
5108
6658
7334
6614
5268
4208
3688
3588
3818
4600
5978
7664
8826
8596
7366
5638
4180
3482
3576
4400
5724
7170
7742
6958
5562
4426
3846
3706
3866
4580
5904
7560
8740
8544
7328
5602
4166
3490
3598
4414
5776
7322
7972
7222
5806
4604
3946
3784
3968
4696
6044
7712
8888
8744
7584
5912
4462
3714
3708
4466
5762
7244
7840
7034
5598
4438
3812
3646
3838
4598
6004
7726
8958
8846
7636
5904
4400
3644
3678
4444
5704
7138
7738
6984
5646
4592
4028
3878
4002
4700
6038
7726
8940
8832
7682
6012
4546
3808
3814
4560
5854
7312
7918
7140
5738
4596
4026
3908
4098
4840
6188
7848
9028
8952
7698
5962
4502
3800
3876
4650
5930
7382
7996
7248
5850
4724
4150
4018
4168
4860
6174
7858
9052
8980
7720
5998
4534
3816
3870
4556
5976
7454
8094
7368
6014
4898
4280
4080
4210
4900
6268
7982
9138
9278
7846
6142
4666
3950
4014
4806
6144
7658
8346
7650
6266
5118
4518
4346
4486
5178
6480
8100
9172
9378
7976
6278
4818
4080
4136
4948
6284
7782
8440
7724
6344
5206
4594
4418
4600
5332
6690
8380
9300
9550
8336
6616
5144
4408
4466
5258
6550
8016
8666
7962
6604
5500
4914
4738
4880
5582
6956
8694
9376
9608
8974
7008
5514
4738
4734
5476
6772
8244
8930
8236
6906
5786
5208
5086
5280
5998
7338
8948
9418
9640
9632
7218
5708
4952
4968
5722
7004
8462
9148
8456
7102
5970
5368
5224
5402
6118
7430
9002
9436
9656
9814
7512
5972
5120
5080
5812
7088
8542
9202
8482
7098
5942
5302
5132
5286
5972
7262
8858
9406
9628
9414
7126
5536
4682
4638
5384
6682
8152
8828
8112
6720
5556
4928
4740
4854
5510
6788
8392
9294
9536
8174
6416
4868
4080
4070
4774
6038
7496
8156
7444
6070
4946
4326
4124
4224
4882
6188
7854
9084
9202
7822
6076
4566
3806
3814
4540
5808
7268
7960
7242
5822
4614
3978
3800
3940
4650
5960
7608
8852
8748
7578
5874
4370
3600
3598
4284
5526
6984
7658
6954
5572
4418
3770
3562
3696
4410
5804
7562
8872
8788
7606
5876
4338
3524
3492
4172
5392
6826
7520
6854
5486
4342
3730
3586
3754
4490
5816
7460
8698
8594
7416
5692
4186
3412
3410
4154
5466
6960
7650
6932
5526
4348
3742
3586
3748
4450
5782
7498
8758
8636
7430
5664
4152
3434
3500
4262
5518
6972
7656
6948
5526
4332
3712
3560
3744
4446
5788
7514
8844
8792
7630
5876
4328
3538
3510
4182
5392
6814
7510
6824
5452
4302
3716
3582
3716
4392
5728
7444
8756
8672
7500
5760
4242
3462
3474
4232
5518
6996
7716
7036
5660
4502
3906
3722
3844
4490
5790
7456
8726
8622
7462
5750
4234
3470
3462
4178
5432
6906
7632
6970
5622
4476
3874
3698
3796
4440
5764
7470
8786
8712
7542
5804
4276
3490
3476
4242
5520
7016
7754
7096
5730
4554
3920
3748
3856
4500
5804
7498
8808
8732
7550
5826
4306
3540
3554
4284
5524
6974
7694
7018
5646
4494
3880
3732
3860
4532
5856
7518
8814
8726
7528
5796
4266
3472
3460
4184
5450
6936
7684
7036
5684
4540
3924
3768
3884
4518
5792
7426
8712
8630
7466
5712
4162
3380
3398
4130
5406
6904
7568
6980
5614
4454
3826
3644
3778
4428
5714
7390
8688
8622
7504
5844
4350
3596
3638
4384
5668
7144
7880
7198
5790
4590
3930
3718
3806
4436
5748
7430
8722
8652
7524
5820
4312
3516
3502
4222
5456
6884
7604
6966
5620
4470
3852
3690
3818
4444
5734
7418
8726
8664
7514
5752
4184
3372
3342
4058
5296
6778
7552
6908
5534
4392
3780
3594
3704
4368
5680
7400
8748
8704
7566
5852
4316
3522
3494
4198
5430
6884
7628
6968
5550
4314
3656
3484
3634
4292
5596
7276
8594
8556
7436
5716
4174
3388
3378
4100
5340
6802
7552
6908
5530
4348
3708
3522
3638
4290
5582
7260
8608
8608
7536
5852
4312
3482
3426
4118
5346
6796
7516
6844
5450
4260
3616
3446
3588
4274
5602
7296
8648
8620
7484
5764
4220
3402
3366
4074
5356
6870
7656
7016
5640
4434
3790
3608
3726
4376
5678
7340
8630
8542
7388
5686
4178
3380
3362
4072
5298
6770
7528
6890
5520
4312
3654
3480
3608
4254
5522
7186
8552
8544
7434
5730
4196
3408
3396
4120
5388
6848
7586
6938
5544
4336
3688
3494
3598
4246
5514
7170
8486
8458
7340
5636
4114
3334
3304
3986
5206
6674
7422
6776
5414
4270
3670
3498
3618
4280
5604
7302
8628
8550
7368
5634
4074
3274
3264
4000
5262
6752
7518
6898
5550
4380
3726
3534
3672
4360
5662
7326
8620
8520
7348
5634
4096
3286
3270
3958
5190
6662
7436
6806
5436
4262
3638
3454
3588
4238
5506
7172
8500
8448
7306
5580
4016
3174
3116
3826
5108
6638
7476
6890
5536
4360
3704
3516
3660
4322
5620
7288
8610
8562
7434
5700
4134
3280
3206
3888
5128
6628
7424
6800
5446
4268
3626
3426
3512
4128
5410
7112
8476
8454
7320
5576
4034
3224
3198
3912
5176
6684
7482
6874
5478
4170
3600
3418
3524
4136
5416
7082
8430
8422
7322
5620
4092
3296
3256
3946
5178
6650
7426
6796
5412
4222
3568
3394
3528
4176
5468
7140
8482
8464
7372
5688
4156
3316
3238
3894
5112
6582
7358
6756
5396
4216
3554
3352
3452
4072
5358
7054
8416
8420
7340
5654
4136
3324
3252
3944
5204
6674
7436
6776
5372
4170
3512
3324
3438
4102
5394
7062
8428
8428
7328
5622
4084
3274
3268
3994
5240
6708
7478
6812
5366
4140
3470
3284
3390
4024
5354
7076
8466
8476
7350
5604
4008
3130
3038
3700
4948
6464
7300
6712
5358
4172
3524
3328
3446
4078
5366
7062
8430
8402
7274
5556
3990
3154
3098
3774
5004
6484
7286
6696
5338
4150
3538
3392
3522
4156
5442
7106
8450
8422
7288
5560
4010
3194
3152
3826
5066
6568
7372
6780
5420
4208
3542
3348
3492
4148
5426
7050
8368
8340
7230
5536
4016
3110
3194
3896
5148
6616
7392
6766
5388
4194
3550
3358
3470
4088
5326
6972
8300
8296
7198
5476
3930
3146
3166
3918
5202
6684
7476
6854
5494
4304
3658
3520
3694
4336
5574
7218
8560
8576
7490
5786
4250
3456
3426
4120
5368
6870
7680
7060
5672
4478
3828
3650
3760
4392
5630
7264
8600
8594
7478
5764
4200
3374
3350
4038
5268
6718
7464
6798
5390
4198
3592
3456
3606
4260
5560
7262
8660
8668
7526
5776
4204
3354
3302
3988
5218
6674
7416
6734
5326
4138
3528
3352
3452
4042
5304
6974
8366
8398
7300
5566
3976
3126
3092
3768
4980
6436
7212
6590
5212
4024
3390
3222
3326
3938
5200
6848
8226
8248
7136
5412
3872
3082
3060
3726
4922
6352
7152
6592
5292
4138
3468
3254
3352
3992
5258
6894
8238
8230
7130
5454
3932
3120
3070
3746
4998
6494
7304
6694
5298
4060
3364
3154
3262
3796
5188
6882
8280
8296
7200
5496
3958
3166
3134
3840
5132
6684
7566
7062
5770
4646
4076
3984
4176
4854
6166
7884
9168
9474
8534
6974
5550
4848
4912
5708
7076
8646
9330
9444
7774
6590
5882
5590
5614
6112
7252
8756
9382
9612
8456
6390
4456
3240
2834
3202
4180
5476
6168
5512
4092
2836
2102
1844
1934
2550
3826
5530
7008
7116
6092
4456
3022
2342
2446
3238
4542
6070
6940
6384
5072
3936
3334
3190
3336
3978
5248
6936
8324
8332
7220
5484
3926
3080
3022
3694
4964
6496
7374
6842
5534
4326
3624
3398
3470
4088
5376
7072
8482
8496
7378
5660
4086
3254
3180
3846
5076
6544
7348
6734
5376
4212
3570
3376
3478
4080
5366
7060
8480
8504
7366
5614
4052
3228
3154
3812
5040
6528
7344
6772
5420
4224
3582
3430
3576
4210
5490
7160
8524
8546
7438
5690
4078
3238
3214
3936
5222
6762
7624
7022
5634
4392
3700
3486
3606
4244
5530
7172
8512
8520
7432
5768
4226
3354
3230
3858
5086
6580
7454
6888
5524
4300
3608
3412
3544
4172
5458
7124
8516
8564
7490
5802
4262
3432
3376
4072
5346
6852
7672
7064
5672
4438
3770
3598
3782
4458
5730
7348
8692
8700
7610
5940
4380
3542
3462
4110
5348
6832
7662
7088
5734
4528
3860
3672
3820
4480
5758
7402
8740
8786
7722
6032
4444
3572
3492
4138
5350
6838
7694
7174
5828
4610
3928
3730
3866
4488
5740
7408
8806
8882
7820
6158
4620
3756
3670
4340
5614
7184
8120
7628
6262
5000
4280
4066
4162
4770
6030
7710
9062
9366
8144
6426
4838
4008
3960
4618
5840
7330
8202
7684
6354
5158
4492
4326
4468
5102
6362
8018
9202
9492
8492
6846
5300
4454
4372
5058
6320
7812
8664
8132
6786
5554
4852
4640
4748
5380
6630
8268
9290
9536
8690
7032
5520
4654
4540
5190
6430
7956
8866
8356
7004
5774
5068
4836
4922
5522
6776
8428
9328
9570
9528
7288
5742
4848
4702
5312
6490
7932
8764
8192
6812
5558
4836
4600
4668
5238
6486
8142
9242
9514
8608
6914
5364
4498
4396
4996
6176
7608
8416
7818
6392
5094
4344
4098
4164
4750
5998
7646
8994
9206
7942
6244
4694
3864
3786
4376
5498
6888
7692
7098
5694
4422
3698
3460
3520
4118
5360
7002
8418
8514
7484
5800
4184
3272
3140
3726
4910
6376
7244
6682
5274
4008
3304
3088
3196
3832
5148
6872
8320
8390
7312
5580
3922
2998
2882
3496
4668
6114
6972
6438
5064
3852
3208
3034
3180
3810
5064
6698
8070
8120
7064
5398
3842
3004
2956
3634
4880
6368
7236
6674
5254
3972
3250
2986
3036
3596
4840
6530
7956
8046
7010
5346
3798
2948
2846
3474
4676
6148
7026
6478
5074
3930
3270
3054
3128
3708
4948
6622
8038
8082
7008
5350
3802
2916
2784
3394
4604
6090
6978
6454
5090
3870
3202
3020
3148
3764
5036
6702
8122
8194
7100
5354
3764
2900
2818
3462
4682
6146
7010
6452
5056
3804
3116
2908
3024
3654
4932
6622
8076
8194
7166
5478
3858
2922
2792
3414
4614
6112
6996
6454
5090
3858
3164
2934
3036
3640
4892
6564
7982
8048
7014
5330
3748
2852
2740
3390
4628
6138
7040
6490
5112
3838
3126
2928
3028
3620
4884
6580
8046
8150
7100
5414
3832
2958
2844
3470
4666
6130
7044
6562
5260
4054
3362
3132
3184
3736
4968
6626
8046
8146
7114
5430
3822
2908
2758
3368
4610
6158
7102
6590
5240
4004
3296
3060
3126
3702
4956
6622
8070
8166
7112
5434
3846
2954
2862
3514
4718
6190
7082
6564
5224
3994
3280
3050
3142
3716
4960
6618
8070
8170
7124
5442
3836
2932
2792
3380
4572
6050
6946
6430
5082
3870
3222
2918
3108
3674
4920
6594
8054
8170
7138
5426
3802
2894
2766
3398
4616
6120
7010
6482
5126
3896
3212
2998
3106
3654
4856
6500
7928
8034
7002
5306
3696
2800
2712
3358
4604
6146
7076
6554
5172
3912
3204
2980
3064
3650
4892
6586
8064
8184
7120
5402
3808
2932
2796
3382
4584
6054
6950
6462
5142
3926
3258
3040
3106
3642
4848
6494
7954
8092
7078
5388
3782
2894
2784
3430
4636
6124
7022
6512
5150
3868
3134
2902
2992
3584
4836
6486
7900
7994
6976
5312
3740
2866
2754
3360
4542
6024
6948
6432
5062
3814
3120
2898
2964
3538
4788
6480
7970
8122
7110
5438
3824
2880
2728
3338
4548
6034
6962
6478
5124
3882
3186
2964
3034
3590
4836
6512
7986
8124
7070
5340
3718
2812
2680
3300
4528
6026
6954
6464
5104
3872
3160
2926
2878
3558
4782
6418
7888
8046
7052
5372
3762
2868
2760
3382
4588
6058
6958
6430
5076
3822
3118
2884
2962
3554
4784
6438
7896
8008
6932
5224
3624
2758
2658
3280
4484
5998
6970
6522
5174
3910
3186
2944
3002
3548
4756
6414
7886
8042
7038
5380
3772
2852
2718
3316
4530
6042
6976
6458
5042
3764
3060
2874
3014
3608
4842
6500
7944
8068
7038
5356
3760
2866
2754
3354
4538
6038
7000
6534
5204
3970
3276
3066
3154
3726
4944
6576
7984
8094
7052
5356
3760
2890
2786
3384
4558
6028
6954
6452
5090
3846
3130
2914
3008
3574
4792
6452
7914
8046
7024
5336
3732
2828
2662
3254
4464
5976
6926
6446
5084
3824
3108
2894
3004
3596
4824
6484
7948
8096
7092
5446
3858
2948
2808
3404
4562
6018
6932
6454
5138
3914
3232
3020
3102
3650
4830
6440
7896
8040
7030
5356
3748
2858
2736
3336
4450
6000
6926
6426
5078
3858
3192
3002
3116
3692
4882
6506
7968
8106
7096
5412
3770
2846
2698
3284
4468
5944
6898
6466
5160
3946
3240
3010
3084
3626
4816
6454
7940
8110
7122
5466
3850
2948
2790
3330
4470
5924
6874
6420
5112
3884
3164
2912
2986
3554
4796
6448
7970
8172
7194
5556
3946
3010
2848
3396
4546
6006
6974
6542
5220
3960
3196
2884
2884
3396
4616
6282
7802
8000
7020
5384
3806
2896
2766
3378
4556
6052
7008
6562
5236
4000
3296
3048
3124
3678
4898
6546
8018
8166
7136
5452
3812
2874
2710
3312
4514
6002
6944
6504
5186
3942
3268
3064
3122
3646
4828
6464
7982
8206
7224
5514
3856
2904
2756
3340
4512
5996
6962
6516
5144
3862
3144
2914
3006
3554
4778
6458
7982
8182
7216
5558
3946
3032
2924
3534
4746
6242
7172
6670
5278
3962
3196
2982
3096
3662
4870
6534
7926
8204
7184
5476
3862
2932
2780
3414
4648
6144
7106
6646
5298
4038
3332
3110
3190
3738
4918
6540
8016
8184
7168
5500
3898
2982
2820
3376
4524
5974
6922
6470
5126
3886
3194
2984
3082
3664
4920
6612
8136
8352
7408
5778
4164
3190
2970
3494
4638
6116
7110
6684
5374
4146
3408
3162
3268
3878
5124
6756
8224
8402
7426
5780
4186
3264
3122
3732
4940
6462
7456
7014
5664
4362
3604
3350
3426
3960
5152
6784
8284
8506
7518
5844
4206
3266
3096
3694
4886
6364
7334
6904
5580
4324
3580
3304
3322
3830
5006
6620
8108
8298
7314
5666
4068
3106
2920
3506
4684
6146
7108
6656
5312
4046
3278
3008
3052
3592
4808
6496
8020
8252
7266
5572
3872
2858
2656
3226
4446
5980
6986
6586
5268
4000
3268
3026
3094
3634
4816
6448
7946
8152
7160
5486
3866
2944
2764
3348
4552
6070
7058
6640
5176
3980
3228
2996
3066
3584
4736
6354
7886
8150
7218
5584
3966
3048
2888
3430
4570
6026
6996
6530
5160
3870
3132
2896
2984
3558
4800
6498
8044
8284
7320
5652
4044
3132
2998
3632
4860
6410
7470
7134
5912
4728
4058
3852
3980
4576
5846
7592
9100
9448
8904
7232
5748
4964
4940
5642
6910
8466
9292
9452
7720
6334
5460
5132
5098
5504
6576
8044
9162
9432
7956
5934
3952
2742
2340
2698
3684
5030
5920
5398
3994
2680
1926
1688
1794
2396
3668
5390
6992
7328
6454
4874
3314
2460
2390
3040
4278
5812
6878
6548
5286
4032
3332
3096
3220
3794
4970
6578
8080
8314
7352
5690
4042
3084
2928
3512
4674
6156
7154
6750
5460
4228
3500
3242
3290
3812
5010
6658
8166
8368
7390
5754
4170
3280
3120
3672
4826
6290
7278
6846
5498
4188
3432
3184
3230
3734
4926
6556
8084
8360
7458
5844
4232
3292
3080
3606
4762
6232
7254
6876
5542
4264
3508
3260
3314
3828
4988
6598
8118
8364
7426
5808
4184
3192
2998
3594
4842
6402
7436
7044
5728
4440
3650
3354
3402
3938
5146
6802
8312
8544
7574
5942
4316
3348
3142
3674
4844
6330
7356
6990
5694
4442
3716
3456
3500
3982
5136
6754
8288
8560
7626
5978
4340
3360
3170
3742
4902
6384
7404
7044
5758
4488
3730
3454
3504
4012
5194
6826
8372
8648
7742
6110
4472
3522
3350
3906
5042
6506
7542
7186
5896
4656
3944
3704
3726
4188
5334
6982
8532
8840
7906
6254
4632
3666
3468
4014
5182
6678
7692
7312
5996
4710
3950
3688
3750
4318
5546
7206
8738
9074
8084
6430
4778
3806
3624
4200
5384
6890
7950
7602
6294
5006
4226
3960
4014
4554
5772
7430
8932
9330
8340
6748
5136
4170
3958
4498
5644
7116
8172
7862
6606
5362
4600
4318
4374
4916
6108
7732
9140
9468
8654
7038
5434
4490
4326
4932
6132
7622
8656
8300
7018
5716
4926
4650
4690
5188
6376
8010
9242
9522
9660
7500
5884
4892
4656
5156
6296
7744
8768
8432
7148
5860
5046
4768
4812
5300
6448
8046
9248
9526
9672
7510
5858
4822
4586
5126
6274
7714
8756
8436
7154
5856
5072
4748
4740
5204
6328
7896
9190
9498
8934
7120
5458
4442
4170
4662
5808
7280
8318
7954
6606
5248
4432
4112
4100
4548
5692
7282
8802
9174
8152
6498
4826
3820
3588
4090
5180
6608
7638
7322
6036
4722
3924
3578
3646
4106
5236
6824
8314
8562
7608
5974
4310
3288
3072
3610
4764
6218
7230
6854
5528
4230
3456
3166
3222
3752
4936
6572
8132
8482
7598
5944
4246
3214
2982
3512
4638
6080
7068
6714
5408
4084
3316
3058
3128
3664
4816
6424
7984
8278
7344
5700
4062
3094
2896
3424
4562
6032
7082
6706
5378
4050
3236
2912
2920
3406
4590
6278
7924
8310
7460
5846
4226
3256
3040
3550
4656
6094
7116
6756
5446
4152
3402
3142
3166
3620
4756
6376
7936
8260
7336
5696
4042
3068
2852
3390
4552
6038
7096
6732
5424
4116
3318
3028
3060
3552
4696
6300
7856
8166
7266
5648
4008
3040
2830
3352
4474
5944
7036
6730
5424
4116
3298
3010
3078
3590
4760
6376
7948
8288
7416
5794
4122
3116
2896
3458
4606
6070
7134
6826
5558
4234
3418
3126
3162
3642
4806
6444
8028
8382
7474
5840
4198
3202
2968
3456
4592
6068
7124
6802
5498
4172
3370
3096
3134
3622
4778
6398
7972
8284
7368
5748
4098
3122
2920
3468
4636
6140
7200
6856
5524
4198
3410
3148
3206
3676
4786
6370
7918
8250
7370
5812
4198
3254
3088
3606
4706
6094
7092
6732
5436
4152
3418
3186
3280
3808
4960
6548
8062
8408
7548
5960
4310
3252
2940
3390
4498
5970
7064
6806
5548
4256
3466
3178
3224
3706
4832
6426
7980
8310
7434
5832
4190
3196
2986
3536
4696
6174
7246
6918
5588
4246
3442
3162
3194
3674
4816
6436
8010
8336
7418
5774
4124
3132
2908
3430
4572
6052
7170
6904
5612
4262
3430
3138
3192
3694
4846
6446
8006
8358
7474
5864
4208
3188
2924
3414
4526
5970
7024
6738
5494
4224
3470
3216
3262
3750
4874
6482
8052
8376
7466
5838
4176
3146
2908
3426
4540
5984
7084
6794
5492
4170
3372
3066
3084
3558
4636
6366
7978
8374
7548
5980
4336
3286
2984
3444
4568
6050
7140
6844
5540
4186
3376
3094
3130
3584
4724
6346
7940
8324
7466
5862
4188
3184
2938
3392
4474
5914
7022
6754
5500
4220
3420
3130
3172
3656
4792
6426
8072
8502
7664
6022
4278
3184
2900
3374
4486
5956
7066
6776
5498
4192
3374
3048
3072
3568
4728
6360
7952
8316
7432
5822
4154
3134
2886
3386
4488
5926
7028
6780
5518
4210
3406
3132
3182
3626
4734
6354
7986
8382
7518
5914
4228
3192
2926
3412
4504
5946
7024
6738
5450
4142
3370
3104
3150
3620
4764
6390
7986
8366
7496
5900
4232
3192
2936
3432
4576
6050
7156
6868
5564
4244
3448
3166
3200
3650
4778
6414
8020
8414
7542
5900
4188
3120
2870
3374
4468
5928
7024
6766
5512
4226
3458
3184
3226
3662
4792
6428
8046
8464
7596
5950
4236
3194
2938
3426
4516
5950
6966
6806
5518
4192
3402
3094
3108
3598
4744
6388
8026
8458
7632
6034
4370
3320
3030
3490
4568
6004
7132
6892
5608
4248
3416
3118
3176
3658
4758
6330
7918
8332
7482
5878
4210
3194
2940
3418
4528
5978
7098
6838
5552
4206
3384
3074
3100
3556
4670
6288
7920
8334
7500
5922
4244
3188
2930
3454
4550
5982
7094
6848
5586
4286
3488
3188
3174
3600
4720
6336
7950
8370
7536
5914
4220
3192
2942
3458
4590
6040
7146
6878
5606
4272
3446
3140
3188
3662
4772
6328
7900
8348
7558
5998
4332
3264
2972
3416
4502
5950
7082
6870
5606
4304
3510
3262
3328
3766
4854
6412
8010
8438
7612
6016
4320
3242
2952
3404
4506
5972
7096
6874
5598
4264
3428
3142
3208
3668
4778
6402
8032
8476
7624
5998
4276
3216
2942
3404
4492
5926
7062
6882
5638
4308
3516
3218
3240
3662
4730
6312
7936
8398
7514
6040
4366
3278
2970
3448
4572
6048
7198
7008
5750
4396
3550
3192
3184
3620
4738
6324
7926
8350
7546
5978
4296
3214
2940
3438
4568
6024
7156
6942
5674
4328
3484
3190
3254
3724
4832
6426
8020
8482
7688
6084
4382
3324
3028
3482
4566
6028
7184
6958
5680
4342
3520
3198
3206
3668
4814
6434
8024
8434
7616
6034
4330
3246
2950
3410
4506
5960
7108
6866
5554
4224
3428
3144
3152
3590
4698
6326
7972
8460
7658
6066
4368
3296
2980
3416
4508
5988
7164
6984
5726
4368
3534
3246
3256
3648
4698
6258
7884
8352
7568
5998
4312
3240
2938
3412
4526
6014
7200
7006
5760
4406
3534
3172
3172
3614
4732
6340
7960
8436
7640
6078
4384
3274
2922
3350
4442
5904
7088
6928
5700
4396
3588
3276
3274
3696
4782
6340
7960
8448
7618
5994
4280
3202
2930
3412
4524
5956
7108
6962
5792
4520
3738
3456
3468
3888
4970
6572
8186
8648
7848
6314
4634
3538
3214
3656
4742
6182
7352
7200
5980
4652
3834
3526
3580
4060
5170
6752
8352
8820
7996
6418
4714
3628
3322
3754
4824
6242
7378
7206
5958
4614
3772
3462
3488
3894
4966
6556
8186
8682
7900
6326
4612
3502
3198
3664
4770
6218
7368
7156
5872
4506
3624
3242
3220
3630
4700
6282
7904
8420
7654
6080
4364
3258
2944
3396
4472
5922
7096
6928
5706
4368
3538
3222
3268
3694
4736
6264
7890
8404
7648
6092
4396
3298
3004
3458
4542
5978
7130
6944
5682
4318
3480
3184
3236
3670
4716
6272
7890
8362
7574
6000
4310
3222
2896
3318
4394
5870
7088
6948
5716
4372
3542
3218
3226
3642
4732
6342
7990
8500
7730
6200
4528
3428
3072
3458
4502
5928
7100
6898
5660
4354
3548
3254
3314
3820
5018
6722
8434
9032
8334
6884
5276
4232
3948
4402
5496
6996
8282
8296
7236
6056
5364
5200
5368
5930
7122
8762
9392
9616
9798
9256
6940
5694
5200
5474
6422
7710
8638
8178
6632
4934
3740
3110
2880
3092
4004
5494
7060
7462
6540
4840
3066
1970
1678
2134
3248
4748
6024
5952
4830
3624
2924
2718
2844
3360
4510
6144
7824
8368
7658
6204
4570
3494
3174
3596
4638
6042
7232
7126
5924
4578
3718
3364
3382
3798
4870
6434
8056
8554
7800
6302
4650
3556
3220
3644
4720
6172
7346
7224
6024
4652
3766
3420
3434
3836
4898
6468
8104
8652
7894
6338
4628
3498
3142
3524
4556
5972
7172
7064
5878
4578
3770
3454
3476
3906
5022
6620
8236
8762
7986
6420
4712
3574
3226
3624
4672
6136
7374
7302
6108
4742
3838
3462
3446
3854
4924
6520
8184
8750
8028
6474
4768
3638
3302
3740
4790
6186
7340
7220
6032
4712
3888
3580
3612
3946
5146
6724
8348
8864
8080
6518
4792
3658
3308
3748
4826
6254
7482
7398
6188
4824
3942
3586
3554
3950
5010
6578
8236
8836
8120
6602
4910
3792
3450
3848
4906
6356
7592
7516
6332
5016
4148
3772
3736
4116
5184
6776
8454
9048
8294
6748
5028
3884
3514
3928
5016
6482
7700
7594
6388
5032
4154
3826
3876
4316
5386
6918
8520
9092
8358
6848
5188
4098
3788
4208
5248
6648
7848
7782
6622
5300
4416
4066
4052
4446
5496
7056
8694
9268
8520
6998
5304
4192
3862
4302
5420
6896
8166
8112
6920
5556
4690
4364
4370
4794
5880
7460
9038
9438
9518
7532
5834
4684
4326
4728
5808
7264
8510
8482
7316
5932
5016
4652
4640
5030
6110
7716
9166
9478
9672
7718
6054
4948
4624
5080
6176
7642
8864
8856
7658
6274
5364
5008
5016
5416
6468
8010
9238
9518
9720
8084
6374
5212
4822
5216
6280
7582
8898
8858
7658
6280
5364
4986
4970
5346
6364
7928
9224
9516
9714
7998
6328
5200
4818
5166
6168
7560
8740
8654
7422
5994
5034
4638
4616
4970
5964
7482
9040
9438
9544
7512
5754
4532
4088
4424
5446
6884
8098
8004
6792
5368
4428
4018
3966
4324
5332
6890
8544
9156
8394
6862
5146
3970
3574
3954
4994
6418
7628
7528
6296
4884
3964
3566
3516
3840
4856
6420
8088
8706
8008
6498
4804
3652
3254
3616
4640
6070
7298
7224
6036
4654
3730
3342
3300
3692
4758
6348
8014
8606
7898
6364
4638
3480
3098
3492
4538
5978
7224
7156
5936
4542
3654
3290
3278
3630
4620
6154
7820
8436
7728
6228
4528
3390
3030
3416
4462
5886
7122
7058
5868
4492
3606
3252
3264
3672
4712
6258
7886
8458
7734
6228
4550
3418
3036
3398
4420
5842
7080
7068
5952
4634
3768
3422
3440
3848
4882
6406
8026
8494
7888
6348
4604
3434
3054
3428
4426
5830
7056
6982
5788
4438
3582
3242
3246
3658
4738
6298
7950
8554
7860
6350
4632
3466
3090
3442
4466
5898
7150
7116
5938
4562
3672
3286
3252
3620
4640
6204
7900
8554
7866
6340
4628
3470
3070
3408
4412
5830
7056
7016
5844
4524
3690
3360
3352
3714
4734
6278
7954
8570
7874
6340
4618
3452
3070
3464
4522
5942
7182
7148
5984
4632
3746
3390
3370
3716
4712
6266
7928
8548
7862
6356
4674
3546
3162
3518
4536
5954
7200
7146
5952
4576
3730
3456
3502
3900
4914
6426
8048
8638
7930
6418
4690
3504
3100
3460
4458
5862
7128
7138
6020
4708
3836
3456
3388
3726
4722
6248
7900
8518
7838
6326
4606
3432
3042
3428
4426
5818
7076
7080
5956
4592
3698
3346
3344
3716
4712
6240
7928
8602
7964
6464
4712
3500
3078
3434
4444
5846
7098
7092
5948
4452
3652
3258
3220
3550
4556
6114
7804
8464
7798
6298
4576
3422
3066
3442
4448
5840
7078
7042
5892
4536
3632
3268
3246
3610
4622
6158
7826
8484
7824
6334
4640
3490
3104
3470
4490
5912
7182
7146
5964
4560
3612
3226
3214
3596
4626
6148
7780
8402
7714
6232
4526
3366
2980
3330
4380
5828
7110
7116
5968
4586
3642
3264
3264
3628
4652
6214
7886
8536
7854
6328
4532
3324
2914
3298
4352
5776
7034
7018
5858
4504
3608
3230
3222
3596
4610
6160
7846
8498
7820
6314
4570
3362
2958
3318
4334
5768
7066
7068
5888
4508
3608
3240
3238
3602
4580
6092
7754
8414
7732
6232
4526
3364
2986
3384
4424
5862
7126
7110
5918
4500
3552
3142
3118
3476
4484
6026
7700
8356
7678
6176
4498
3384
3002
3320
4278
5672
6956
6966
5846
4522
3658
3310
3284
3610
4582
6102
7758
8404
7748
6248
4548
3370
2944
3284
4288
5710
6994
7026
5886
4536
3642
3250
3210
3556
4540
6086
7778
8480
7826
6316
4556
3348
2928
3272
4286
5736
7052
7090
5946
4550
3644
3270
3272
3660
4662
6166
7812
8506
7902
6448
4726
3520
3078
3386
4378
5792
7106
7158
6020
4614
3648
3238
3170
3500
4520
6052
7718
8394
7766
6308
4586
3406
2980
3294
4304
5768
7104
7158
6010
4580
3604
3170
3126
3492
4502
6038
7726
8420
7798
6338
4626
3446
3004
3318
4292
5704
7012
7090
5980
4636
3724
3314
3282
3640
4632
6124
7784
8476
7842
6386
4668
3444
3004
3342
4352
5788
7110
7168
6016
4600
3640
3228
3200
3576
4592
6156
7862
8542
7862
6378
4644
3432
2982
3286
4278
5682
6950
6998
5900
4562
3680
3336
3332
3696
4698
6248
7938
8642
7980
6458
4688
3440
2982
3320
4324
5700
6958
7022
5898
4550
3660
3300
3290
3504
4620
6180
7886
8590
7948
6448
4698
3474
3044
3374
4372
5794
7090
7124
5946
4530
3598
3216
3198
3558
4540
6048
7726
8446
7850
6384
4650
3404
2964
3308
4314
5730
7048
7108
5952
4532
3604
3236
3226
3592
4596
6124
7804
8518
7896
6410
4668
3454
3004
3328
4334
5760
7070
7138
6018
4632
3694
3282
3234
3574
4562
6098
7802
8560
7978
6508
4772
3548
3096
3416
4398
5788
7080
7130
6004
4624
3702
3292
3228
3534
4504
6040
7752
8490
7876
6384
4640
3422
2986
3326
4320
5740
7062
7136
6014
4616
3658
3244
3204
3554
4558
6086
7796
8528
7858
6308
4562
3380
2998
3360
4396
5806
7096
7162
6032
4638
3690
3294
3260
3586
4548
6032
7704
8442
7848
6366
4616
3416
3002
3368
4406
5836
7156
7226
6072
4662
3728
3314
3246
3560
4516
6034
7708
8448
7856
6428
4710
3524
3116
3418
4366
5734
7058
7186
6124
4762
3808
3370
3290
3574
4528
6060
7774
8526
7920
6452
4680
3440
2990
3318
4296
5728
7060
7148
6030
4628
3682
3270
3222
3566
4564
6078
7744
8480
7866
6400
4680
3464
3034
3380
4420
5854
7188
7322
6230
4826
3868
3488
3476
3818
4756
6258
7952
8702
8106
6628
4868
3598
3130
3452
4468
5894
7208
7312
6208
4828
3892
3486
3470
3780
4742
6276
8008
8808
8234
6774
5040
3802
3310
3542
4490
5900
7208
7282
6182
4794
3836
3398
3342
3646
4584
6110
7808
8586
8020
6582
4850
3646
3214
3542
4496
5944
7268
7334
6172
4732
3764
3334
3248
3510
4416
5900
7564
8342
7768
6342
4628
3398
2924
3234
4220
5632
6976
7094
5996
4592
3646
3228
3190
3488
4418
5914
7606
8382
7836
6418
4690
3432
2964
3266
4234
5628
6922
7016
5948
4606
3672
3248
3174
3474
4426
5930
7626
8394
7820
6368
4630
3400
2958
3276
4250
5660
7008
7128
6026
4610
3624
3168
3100
3418
4400
5956
7696
8464
7832
6344
4610
3416
2980
3282
4270
5684
7030
7176
6130
4798
3912
3570
3590
3964
4974
6514
8254
9100
8604
7222
5540
4360
3980
4406
5514
7036
8516
8864
7972
6760
5968
5686
5726
6082
7026
8466
9328
9566
9758
8636
6772
5426
4808
4850
5520
6574
7528
7284
5874
4216
3030
2410
2170
2308
3120
4550
6236
7034
6484
5102
3450
2286
1896
2230
3248
4726
6134
6362
5358
4052
3180
2834
2866
3260
4282
5864
7576
8438
7902
6468
4732
3502
3046
3356
4312
5674
6986
7108
6020
4638
3672
3282
3286
3650
4638
6160
7838
8618
8044
6572
4808
3522
3022
3320
4296
5682
6998
7120
6024
4622
3662
3258
3206
3522
4486
6012
7726
8556
8016
6586
4886
3708
3276
3570
4502
5874
7186
7314
6204
4790
3794
3324
3242
3566
4498
6006
7744
8608
8094
6694
4962
3692
3188
3472
4432
5836
7188
7358
6302
4910
3950
3528
3452
3728
4664
6150
7824
8582
8004
6572
4834
3608
3176
3526
4540
5936
7242
7336
6234
4844
3918
3534
3482
3742
4674
6174
7878
8694
8164
6750
5032
3788
3296
3544
4510
5928
7298
7484
6408
4984
3992
3552
3494
3814
4766
6254
7950
8782
8236
6800
5070
3828
3338
3602
4554
5950
7308
7504
6440
5018
4010
3552
3478
3784
4728
6230
7952
8806
8314
6946
5248
4000
3528
3814
4784
6164
7482
7646
6602
5244
4290
3854
3804
4098
5018
6518
8232
9056
8522
7110
5372
4108
3610
3884
4824
6196
7540
7732
6676
5290
4332
3914
3910
4252
5204
6696
8398
9206
8734
7312
5550
4272
3782
4084
5078
6486
7852
8064
7050
5670
4710
4296
4256
4572
5528
7034
8712
9346
9394
7572
5856
4610
4146
4470
5448
6854
8192
8368
7312
5906
4912
4464
4434
4768
5740
7262
8922
9402
9622
7922
6210
4942
4454
4734
5686
7078
8418
8596
7560
6184
5208
4768
4704
4992
5914
7440
9052
9444
9662
8188
6502
5248
4724
4968
5924
7294
8588
8710
7584
6116
5114
4686
4636
4948
5892
7420
9036
9444
9654
8036
6290
4976
4418
4650
5578
6972
8302
8444
7346
5878
4830
4330
4224
4470
5368
6846
8542
9282
9010
7434
5668
4332
3768
3992
4910
6276
7596
7762
6686
5268
4264
3804
3726
3982
4888
6398
8102
8952
8420
6888
5190
3868
3322
3534
4432
5786
7106
7274
6222
4818
3834
3400
3332
3620
4546
6030
7734
8552
8000
6544
4764
3464
2934
3138
4060
5460
6832
7040
5964
4536
3558
3118
3066
3400
4364
5850
7538
8344
7794
6374
4660
3420
2966
3258
4198
5546
6840
6970
5878
4454
3474
3028
2974
3272
4188
5668
7382
8260
7764
6392
4642
3352
2842
3096
4064
5460
6808
7026
5976
4546
3514
3014
2926
3214
4116
5596
7324
8224
7756
6354
4596
3302
2780
3038
4004
5424
6806
7024
5958
4526
3510
3008
2920
3210
4160
5692
7422
8278
7754
6316
4546
3252
2778
3086
4056
5466
6866
7104
6024
4578
3572
3100
3000
3252
4142
5626
7346
8232
7740
6342
4616
3350
2842
3096
4046
5412
6742
6926
5866
4448
3462
3076
3032
3338
4276
5806
7528
8366
7816
6382
4618
3322
2778
3024
3970
5348
6740
7002
5986
4568
3552
2986
3022
3306
4232
5712
7420
8272
7782
6398
4678
3378
2838
3070
4012
5416
6818
7036
5992
4590
3620
3182
3118
3366
4250
5728
7434
8282
7714
6262
4512
3196
2656
2896
3834
5226
6638
6912
5934
4568
3604
3126
3062
3376
4328
5828
7530
8382
7884
6490
4748
3462
2970
3218
4124
5440
6768
6968
5912
4502
3516
3086
3062
3406
4332
5804
7506
8368
7852
6412
4636
3306
2748
2974
3902
5296
6706
6958
5952
4590
3646
3202
3114
3388
4306
5792
7482
8342
7828
6428
4698
3426
2920
3160
4100
5464
6794
6994
5954
4546
3560
3092
3006
3282
4200
5688
7372
8220
7674
6218
4462
3194
2714
3008
3988
5390
6726
6918
5862
4460
3500
3068
3038
3358
4276
5752
7430
8292
7776
6344
4590
3320
2808
2994
3852
5200
6562
6794
5756
4360
3404
2986
2934
3214
4098
5584
7306
8194
7682
6248
4490
3222
2730
3000
3950
5370
6788
7066
6028
4550
3510
3058
3020
3300
4190
5638
7322
8180
7686
6276
4532
3246
2726
2940
3868
5248
6604
6808
5764
4374
3422
2998
2954
3258
4142
5600
7288
8154
7660
6234
4504
3230
2726
2980
3896
5246
6594
6818
5766
4374
3400
2948
2892
3172
4044
5496
7198
8102
7638
6256
4526
3246
2734
3028
3992
5392
6768
7016
6008
4622
3648
3172
3066
3302
4186
5680
7412
8310
7802
6378
4612
3298
2746
2924
3798
5180
6558
6770
5698
4276
3292
2878
2844
3136
4030
5500
7226
8130
7666
6326
4640
3356
2798
3006
3912
5266
6624
6858
5844
4432
3426
3006
2968
3252
4140
5580
7260
8148
7666
6276
4522
3208
2688
2922
3856
5244
6622
6830
5782
4402
3442
3022
3012
3314
4214
5686
7396
8280
7786
6390
4648
3340
2802
3006
3926
5308
6668
6898
5848
4420
3398
2906
2816
3064
3964
5412
7194
8120
7664
6308
4568
3282
2782
3024
3962
5328
6704
6962
5958
4534
3522
3028
2938
3206
4108
5572
7278
8184
7702
6318
4596
3300
2768
2984
3884
5218
6584
6872
5860
4424
3388
2904
2834
3110
4012
5482
7214
8156
7706
6344
4616
3302
2752
2948
3870
5282
6696
6960
5922
4506
3486
3004
2912
3184
4078
5566
7282
8216
7770
6348
4556
3210
2672
2914
3836
5204
6588
6848
5822
4420
3442
3012
2962
3252
4160
5626
7302
8196
7694
6308
4570
3254
2696
2896
3804
5184
6590
6872
5870
4472
3464
3010
2974
3284
4156
5618
7316
8244
7770
6366
4600
3254
2676
2862
3750
5104
6490
6752
5730
4322
3322
2870
2818
3120
4026
5526
7270
8224
7796
6442
4720
3386
2822
3044
3962
5342
6744
7016
5974
4526
3494
3000
2900
3142
4030
5514
7250
8176
7694
6296
4544
3236
2686
2908
3830
5218
6648
6952
5944
4528
3516
3046
2974
3234
4130
5610
7370
8318
7860
6482
4766
3478
2944
3148
4040
5406
6812
7108
6118
4704
3674
3180
3092
3350
4220
5698
7450
8434
8002
6658
4932
3598
3028
3224
4112
5472
6866
7142
6122
4686
3678
3224
3146
3396
4294
5804
7550
8486
8028
6652
4856
3468
2856
3020
3916
5250
6586
6842
5840
4436
3408
2928
2878
3192
4116
5610
7332
8260
7814
6448
4718
3400
2822
2988
3840
5150
6484
6752
5770
4400
3414
2928
2820
3054
3902
5344
7062
8036
7614
6240
4480
3154
2618
2836
3734
5114
6504
6774
5784
4396
3416
2964
2910
3190
4054
5486
7176
8092
7644
6264
4526
3198
2642
2874
3830
5252
6662
6932
5904
4462
3418
2926
2840
3092
3932
5368
7082
8032
7602
6236
4502
3184
2610
2794
3684
5064
6482
6790
5790
4386
3424
3008
2958
3220
4086
5512
7216
8180
7750
6392
4694
3448
2980
3278
4276
5706
7158
7514
6604
5258
4306
3898
3874
4194
5134
6690
8518
9318
9556
8188
6646
5508
5098
5420
6380
7750
9036
9394
8204
6658
5454
4838
4636
4748
5388
6548
7932
8514
7664
5934
3888
2364
1670
1738
2480
3712
5006
5260
4260
2888
1958
1560
1562
1904
2846
4386
6212
7294
6942
5640
3984
2794
2364
2660
3596
4984
6416
6770
5812
4426
3424
2962
2898
3154
4036
5506
7250
8204
7778
6430
4706
3400
2848
3026
3874
5236
6668
6984
5968
4512
3466
2990
2954
3246
4126
5572
7264
8220
7810
6476
4746
3446
2878
3036
3900
5246
6638
6958
5984
4562
3522
3052
2986
3278
4186
5676
7410
8366
7904
6530
4786
3464
2914
3132
4010
5344
6724
7046
6048
4606
3554
3062
3000
3254
4146
5656
7422
8398
7994
6648
4886
3522
2936
3094
3958
5310
6716
7058
6114
4726
3678
3274
3168
3392
4230
5688
7402
8362
7952
6606
4884
3562
3014
3198
4064
5446
6848
7152
6162
4728
3708
3250
3174
3434
4294
5752
7484
8480
8088
6758
4994
3626
3044
3272
4190
5556
6932
7218
6230
4824
3820
3346
3240
3472
4324
5790
7508
8474
8074
6750
5042
3688
3082
3248
4134
5498
6924
7258
6288
4898
3906
3452
3346
3574
4454
5926
7680
8674
8252
6888
5142
3794
3208
3384
4260
5618
7050
7376
6434
5058
4064
3586
3484
3720
4616
6140
7930
8950
8572
7220
5442
4066
3500
3704
4630
5986
7358
7678
6720
5332
4338
3868
3780
4020
4896
6374
8130
9088
8720
7392
5678
4342
3760
3918
4760
6080
7494
7848
6912
5518
4504
4036
3988
4298
5186
6634
8352
9238
9216
7630
5894
4580
4036
4252
5158
6522
7926
8270
7310
5912
4912
4474
4392
4612
5442
6880
8596
9338
9546
7938
6188
4838
4278
4502
5280
6730
8078
8382
7406
6000
4964
4476
4414
4688
5546
6984
8672
9348
9574
7982
6232
4882
4294
4458
5344
6674
8034
8308
7270
5818
4774
4272
4200
4486
5346
6800
8482
9286
9342
7654
5880
4478
3852
3992
4832
6174
7542
7838
6836
5394
4340
3798
3628
3810
4608
5992
7652
8602
8208
6866
5142
3818
3268
3452
4306
5596
6946
7244
6264
4824
3748
3232
3138
3390
4236
5690
7422
8412
7984
6610
4846
3478
2882
3038
3872
5160
6526
6856
5888
4452
3414
2924
2850
3102
3964
5406
7114
8120
7746
6426
4676
3316
2698
2848
3700
5048
6458
6760
5748
4290
3248
2752
2656
2888
3734
5184
6906
7902
7540
6236
4502
3184
2612
2800
3666
5022
6428
6764
5752
4300
3254
2772
2696
2942
3774
5228
6988
8030
7648
6286
4526
3214
2676
2860
3734
5058
6444
6762
5778
4348
3294
2776
2666
2892
3642
5160
6864
7854
7448
6140
4460
3178
2610
2772
3620
4960
6386
6758
5788
4362
3290
2778
2686
2914
3716
5126
6888
7930
7550
6224
4508
3158
2546
2714
3582
4912
6326
6700
5770
4372
3328
2798
2680
2884
3694
5142
6904
7956
7608
6330
4614
3290
2700
2842
3694
5054
6498
6884
5964
4546
3492
2950
2810
3014
3834
5284
7020
8026
7628
6288
4572
3232
2644
2794
3620
4966
6410
6802
5856
4430
3368
2854
2774
3042
3918
5372
7072
8042
7586
6214
4452
3090
2500
2662
3494
4842
6274
6662
5740
4376
3378
2936
2874
3120
3942
5350
7052
8040
7638
6262
4466
3120
2582
2796
3660
4992
6402
6766
5822
4400
3356
2872
2786
3038
3896
5336
7026
8004
7594
6254
4506
3158
2594
2792
3658
4966
6344
6698
5768
4366
3326
2848
2766
3012
3848
5296
7028
8022
7606
6240
4480
3130
2580
2794
3684
5016
6368
6760
5790
4410
3384
2874
2764
2988
3794
5204
6920
7928
7548
6226
4488
3116
2498
2674
3564
4924
6360
6752
5826
4412
3362
2828
2702
2932
3760
5176
6890
7914
7554
6254
4560
3256
2688
2854
3716
5028
6374
6682
5684
4240
3188
2716
2646
2908
3758
5172
6898
7904
7504
6174
4462
3120
2526
2678
3526
4862
6284
6646
5674
4268
3272
2810
2732
2972
3788
5200
6888
7890
7504
6186
4422
3048
2458
2632
3500
4838
6278
6698
5774
4366
3294
2788
2694
2914
3744
5190
6920
7930
7552
6204
4450
3062
2444
2614
3484
4806
6216
6608
5690
4302
3292
2824
2744
3020
3888
5314
7026
8042
7632
6256
4472
3078
2486
2648
3522
4906
6390
6822
5872
4418
3344
2822
2732
2972
3784
5180
6838
7830
7480
6178
4452
3092
2490
2666
3558
4912
6334
6698
5710
4264
3202
2700
2618
2860
3714
5172
6926
7976
7506
6262
4502
3132
2512
2650
3478
4794
6212
6584
5650
4250
3204
2714
2640
2882
3714
5154
6900
7932
7566
6244
4504
3156
2568
2726
3580
4912
6334
6722
5768
4328
3290
2810
2742
2996
3842
5274
6994
8004
7584
6210
4444
3124
2534
2710
3574
4912
6310
6658
5686
4284
3282
2820
2728
2946
3764
5172
6916
7958
7574
6246
4506
3168
2580
2726
3562
4900
6314
6674
5720
4302
3260
2740
2630
2864
3684
5096
6812
7830
7456
6152
4432
3110
2556
2760
3644
4974
6368
6740
5792
4366
3318
2836
2764
3012
3822
5216
6916
7930
7576
6270
4518
3132
2526
2668
3506
4830
6238
6654
5754
4412
3398
2886
2744
2936
3730
5140
6862
7906
7520
6184
4448
3098
2522
2708
3586
4952
6386
6760
5802
4356
3290
2784
2692
2932
3772
5198
6908
7914
7514
6182
4460
3136
2574
2750
3620
4956
6386
6784
5856
4432
3374
2854
2760
2996
3820
5238
6950
7972
7588
6236
4484
3134
2562
2746
3572
4882
6302
6708
5794
4384
3322
2800
2702
2934
3748
5190
6906
7930
7544
6214
4504
3168
2596
2750
3592
4908
6320
6718
5778
4374
3334
2830
2728
2928
3726
5180
6950
8034
7686
6332
4542
3152
2548
2716
3608
4968
6390
6766
5812
4350
3254
2728
2610
2842
3670
5116
6848
7910
7588
6310
4598
3240
2624
2780
3624
4940
6350
6738
5820
4418
3382
2884
2780
2996
3802
5218
6936
7982
7612
6274
4508
3138
2552
2742
3632
4980
6450
6912
6018
4580
3504
2980
2872
3098
3936
5372
7116
8174
7844
6568
4850
3472
2826
2956
3802
5130
6544
6938
6010
4584
3506
2972
2852
3072
3926
5386
7118
8150
7792
6476
4742
3368
2762
2910
3790
5144
6574
6952
6014
4632
3624
3158
3040
3190
3940
5342
7060
8096
7736
6402
4644
3288
2700
2866
3718
5050
6454
6816
5870
4462
3446
2976
2902
3122
3926
5338
7048
8060
7676
6342
4586
3196
2544
2656
3484
4794
6210
6638
5762
4376
3318
2796
2686
2890
3696
5124
6856
7918
7572
6258
4524
3162
2566
2712
3544
4830
6212
6598
5672
4294
3274
2782
2720
2988
3824
5212
6888
7944
7596
6274
4510
3142
2566
2714
3544
4862
6294
6700
5732
4292
3234
2706
2598
2842
3682
5114
6832
7894
7546
6220
4466
3098
2476
2592
3430
4782
6244
6700
5822
4436
3390
2854
2750
2984
3820
5268
7036
8162
7904
6670
5020
3654
3192
3372
4268
5652
7156
7664
6856
5544
4566
4156
4196
4604
5592
7172
8940
9420
9644
9328
7174
5812
5140
5226
5980
7178
8430
8708
7720
6210
4952
4126
3660
3498
3932
5022
6496
7374
6848
5364
3476
1994
1286
1350
2108
3410
4858
5334
4496
3178
2204
1796
1802
2078
2914
4394
6216
7394
7162
5928
4246
2932
2376
2566
3436
4834
6328
6792
5926
4560
3550
3066
2966
3178
3966
5356
7050
8104
7766
6436
4654
3248
2624
2786
3632
4928
6350
6800
5948
4568
3502
2958
2838
3068
3910
5372
7130
8204
7854
6548
4790
3406
2806
2956
3772
5066
6468
6898
6020
4662
3612
3090
2968
3178
3976
5364
7074
8136
7788
6506
4784
3420
2812
2962
3800
5138
6562
6996
6090
4666
3600
3078
2998
3218
4020
5434
7166
8258
7930
6632
4908
3532
2910
3040
3900
5204
6592
7012
6114
4702
3656
3144
3030
3234
4056
5426
7268
8348
8028
6728
4988
3616
2986
3114
3936
5256
6666
7106
6190
4764
3686
3156
3054
3298
4148
5626
7372
8444
8098
6770
4990
3574
2936
3060
3910
5244
6694
7136
6232
4862
3866
3408
3310
3498
4308
5732
7454
8546
8232
6928
5168
3770
3148
3296
4146
5474
6926
7390
6502
5066
3976
3450
3348
3552
4374
5806
7522
8596
8274
6976
5224
3832
3210
3344
4176
5520
6962
7444
6622
5276
4224
3666
3538
3776
4592
6008
7710
8790
8508
7232
5490
4080
3440
3588
4456
5826
7300
7778
6914
5526
4460
3942
3824
4046
4870
6298
8022
9084
8866
7586
5876
4526
3932
4114
4962
6258
7644
8068
7186
5776
4702
4190
4122
4376
5204
6616
8324
9262
9466
7860
6118
4730
4114
4256
5130
6490
7930
8390
7518
6116
5036
4554
4472
4680
5494
6918
8640
9350
9592
8188
6464
5058
4410
4532
5378
6674
8132
8588
7696
6276
5198
4674
4552
4770
5578
6972
8628
9342
9576
8186
6486
5070
4372
4450
5272
6568
7984
8438
7530
6120
5044
4476
4312
4456
5206
6582
8262
9224
9356
7780
6022
4600
3932
4024
4806
6072
7434
7856
6934
5470
4338
3768
3614
3800
4586
5994
7732
8846
8516
7164
5384
3956
3292
3376
4204
5544
6972
7388
6436
4988
3902
3368
3252
3440
4192
5572
7270
8358
8042
6746
5006
3614
2982
3114
3942
5252
6686
7160
6264
4800
3674
3066
2902
3106
3910
5320
7034
8140
7836
6508
4730
3342
2734
2906
3754
5056
6446
6860
5964
4570
3516
2990
2856
3034
3808
5236
6980
8100
7834
6576
4836
3408
2742
2840
3650
4968
6414
6866
5958
4554
3520
3006
2882
3080
3870
5276
6998
8124
7844
6564
4810
3404
2742
2860
3704
5042
6484
6980
6092
4674
3594
3060
2950
3142
3926
5330
7046
8056
7844
6580
4850
3456
2818
2942
3776
5074
6494
6952
6072
4646
3550
3014
2904
3126
3912
5302
7002
8120
7860
6588
4832
3438
2778
2876
3702
5022
6458
6944
6106
4732
3662
3134
3014
3202
3994
5392
7096
8198
7880
6590
4854
3490
2884
2996
3830
5158
6592
7072
6208
4806
3714
3178
3066
3248
4008
5398
7134
8300
8028
6742
4972
3548
2884
2978
3754
5054
6518
7050
6238
4846
3760
3208
3090
3286
4098
5526
7260
8410
8158
6900
5132
3694
3050
3202
4060
5372
6772
7192
6262
4820
3754
3236
3132
3334
4112
5520
7228
8342
8062
6794
5074
3678
3016
3134
3956
5270
6684
7166
6298
4888
3808
3274
3156
3356
4114
5494
7198
8302
8032
6758
5004
3606
2986
3122
3978
5322
6790
7308
6426
5000
3886
3322
3198
3390
4156
5536
7264
8432
8218
6966
5208
3770
3084
3144
3912
5198
6612
7076
6186
4764
3686
3190
3146
3424
4232
5636
7364
8522
8254
6982
5242
3798
3078
3160
3962
5266
6698
7214
6380
4966
3862
3326
3216
3470
4310
5766
7504
8622
8294
6970
5192
3714
3000
3072
3854
5138
6608
7144
6294
4872
3778
3240
3138
3352
4140
5538
7262
8418
8180
6948
5226
3798
3124
3202
3980
5228
6626
7134
6300
4888
3782
3226
3124
3356
4192
5638
7394
8552
8284
7010
5242
3778
3080
3172
3992
5308
6744
7238
6368
4958
3862
3334
3246
3460
4216
5566
7262
8418
8192
6978
5262
3834
3178
3312
4124
5402
6830
7342
6480
5082
3996
3456
3330
3534
4310
5706
7410
8526
8222
6948
5204
3776
3116
3244
4094
5444
6914
7422
6542
5124
4016
3454
3336
3526
4284
5636
7324
8438
8170
6922
5196
3786
3106
3184
3992
5346
6844
7418
6594
5154
4014
3428
3306
3516
4302
5706
7414
8558
8294
7026
5156
3852
3218
3302
4078
5352
6802
7358
6556
5164
4054
3470
3310
3492
4256
5662
7360
8490
8234
6974
5222
3798
3162
3296
4132
5468
6918
7432
6580
5158
4052
3480
3356
3552
4316
5712
7444
8620
8418
7164
5372
3914
3226
3326
4108
5394
6814
7324
6484
5100
4038
3522
3390
3616
4448
5890
7600
8718
8438
7178
5432
3964
3250
3308
4076
5354
6792
7336
6558
5234
4194
3652
3522
3712
4466
5818
7498
8648
8410
7154
5404
3974
3306
3410
4236
5572
7014
7532
6694
5256
4136
3564
3418
3590
4332
5724
7462
8606
8364
7134
5384
3920
3220
3306
4104
5416
6880
7438
6628
5230
4134
3604
3478
3648
4394
5798
7546
8710
8444
7154
5380
3940
3254
3352
4192
5556
7020
7528
6664
5252
4180
3670
3552
3742
4498
5856
7532
8674
8454
7224
5494
4076
3392
3452
4232
5528
6960
7482
6666
5260
4138
3566
3340
3654
4422
5788
7492
8642
8396
7146
5410
3984
3324
3404
4196
5492
6928
7458
6638
5262
4202
3702
3654
3912
4692
6036
7692
8798
8526
7254
5492
4058
3396
3500
4316
5630
7094
7656
6836
5420
4314
3746
3590
3756
4520
5900
7586
8692
8398
7122
5384
3970
3304
3408
4248
5576
7006
7534
6696
5292
4214
3666
3560
3756
4500
5878
7596
8780
8566
7314
5584
4148
3456
3538
4320
5602
7028
7560
6740
5344
4242
3702
3572
3772
4570
5992
7698
8858
8648
7394
5622
4164
3490
3578
4384
5700
7158
7710
6876
5440
4314
3756
3630
3802
4562
5940
7628
8786
8570
7342
5606
4168
3470
3536
4296
5622
7104
7684
6884
5488
4396
3860
3764
3984
4728
6080
7752
8892
8686
7492
5822
4460
3832
3930
4704
5942
7372
7896
7064
5636
4492
3922
3800
3986
4728
6102
7796
8936
8762
7564
5854
4436
3766
3890
4604
6010
7430
7934
7102
5692
4594
4042
3906
4066
4790
6118
7754
8868
8630
7386
5658
4236
3572
3674
4506
5830
7286
7814
6984
5536
4378
3792
3648
3858
4636
6010
7728
8874
8622
7346
5570
4126
3438
3478
4226
5502
6956
7510
6712
5324
4234
3708
3596
3798
4580
5964
7670
8836
8606
7350
5580
4112
3408
3464
4252
5542
6968
7528
6764
5404
4294
3730
3580
3728
4450
5796
7488
8666
8456
7232
5486
4038
3388
3540
4364
5638
7024
7562
6780
5402
4314
3746
3566
3680
4394
5778
7508
8724
8536
7328
5604
4146
3450
3500
4284
5594
7062
7616
6798
5378
4246
3650
3522
3720
4496
5944
7722
8906
8674
7414
5668
4246
3582
3732
4620
6022
7522
8132
7450
6186
5186
4668
4576
4802
5634
7120
8890
9398
9630
9800
7708
6468
5930
6112
6946
8250
9264
9524
9720
7826
6536
5802
5526
5588
6172
7286
8554
9316
9086
7290
5254
3566
2676
2584
3232
4402
5748
6220
5350
3906
2806
2282
2188
2414
3216
4666
6482
7806
7706
6554
4902
3548
2938
3080
3926
5260
6758
7396
6672
5350
4320
3808
3704
3900
4610
5926
7608
8792
8602
7372
5626
4168
3450
3530
4308
5608
7048
7610
6834
5492
4414
3844
3694
3862
4628
6038
7748
8904
8716
7488
5750
4304
3578
3588
4310
5548
6954
7494
6716
5344
4250
3714
3598
3798
4560
5964
7720
8902
8668
7420
5672
4224
3554
3672
4484
5794
7244
7784
6966
5544
4408
3822
3696
3892
4660
6024
7724
8874
8650
7418
5704
4274
3590
3678
4454
5732
7154
7686
6842
5414
4306
3758
3668
3900
4670
6070
7786
8960
8796
7600
5876
4396
3636
3636
4374
5656
7114
7694
6906
5498
4394
3844
3756
3982
4762
6160
7866
9012
8844
7596
5860
4410
3742
3830
4606
5890
7290
7842
7036
5658
4572
4028
3894
4066
4800
6174
7878
9016
8854
7618
5872
4368
3626
3674
4434
5758
7266
7872
7100
5732
4656
4104
3958
4130
4878
6280
7992
9102
9028
7716
6014
4564
3878
3968
4722
5960
7350
7902
7110
5724
4622
4062
3940
4166
4966
6388
8114
9200
9418
7926
6182
4708
3994
4074
4872
6182
7656
8228
7432
6042
4932
4372
4246
4418
5154
6540
8242
9246
9492
8084
6418
4992
4314
4418
5218
6524
7966
8512
7686
6276
5166
4614
4500
4722
5506
6904
8648
9368
9598
8588
6816
5324
4596
4638
5414
6740
8226
8804
7982
6562
5456
4918
4832
5040
5808
7210
8904
9416
9640
9080
7072
5664
4954
4956
5670
6910
8326
8920
8178
6836
5738
5174
5012
5164
5880
7200
8836
9398
9626
8780
6946
5518
4838
4904
5686
6958
8354
8890
8074
6664
5498
4878
4708
4860
5588
6946
8640
9360
9590
8314
6564
5094
4370
4420
5174
6408
7784
8282
7434
6008
4876
4276
4100
4242
4946
6250
7904
9040
8870
7628
5888
4428
3708
3748
4498
5800
7246
7782
6930
5480
4358
3802
3648
3774
4462
5788
7440
8580
8356
7120
5368
3920
3220
3264
4016
5302
6742
7304
6496
5120
4052
3518
3364
3488
4148
5470
7128
8272
8072
6890
5176
3742
3048
3110
3900
5202
6636
7192
6374
4962
3858
3288
3176
3342
4048
5392
7094
8282
8118
6924
5196
3740
3020
3062
3820
5084
6492
7008
6186
4778
3658
3098
2960
3144
3890
5272
6998
8246
8062
6806
5060
3594
2866
2904
3648
4926
6388
6980
6216
4842
3760
3204
3052
3208
3936
5288
6986
8188
7980
6750
4978
3512
2820
2892
3678
5000
6456
7006
6204
4806
3696
3132
3016
3214
3974
5346
7072
8294
8100
6852
5086
3604
2878
2922
3686
4976
6426
7000
6188
4790
3684
3126
2986
3130
3838
5198
6904
8120
7944
6758
5040
3634
2968
3046
3800
5054
6476
7014
6230
4862
3766
3172
3002
3156
3888
5270
6992
8186
7970
6732
4992
3558
2868
2930
3706
5002
6458
7036
6236
4840
3728
3168
3028
3212
3954
5314
7038
8240
8050
6814
5044
3572
2850
2882
3612
4874
6324
6944
6190
4820
3738
3224
3148
3378
4134
5490
7178
8344
8104
6840
5072
3586
2850
2872
3640
4960
6480
7096
6306
4876
3740
3154
3004
3152
3866
5224
6940
8116
7874
6636
4936
3506
2818
2902
3698
5002
6434
6992
6192
4782
3650
3064
2954
3140
3878
5228
6946
8132
7922
6706
4960
3496
2792
2850
3610
4902
6344
6928
6132
4724
3584
2994
2892
3106
3886
5272
6982
8168
7956
6706
4954
3510
2824
2896
3670
4954
6390
6926
6122
4728
3640
3106
3012
3214
3936
5236
6888
8046
7864
6710
5024
3536
2760
2794
3566
4868
6324
6894
6116
4716
3570
2990
2846
3016
3768
5124
6824
8012
7818
6578
4816
3332
2620
2692
3462
4762
6238
6800
5978
4580
3496
2964
2874
3070
3808
5198
6940
8100
7874
6658
4902
3426
2700
2746
3534
4868
6326
6856
6022
4626
3552
3056
2956
3094
3770
5082
6780
8008
7832
6632
4918
3468
2716
2750
3540
4844
6300
6874
6070
4660
3542
2954
2784
2956
3704
5084
6806
8004
7808
6604
4876
3414
2694
2736
3470
4690
6116
6694
5900
4498
3402
2860
2736
2900
3604
4968
6660
7858
7680
6514
4850
3470
2840
2938
3712
4948
6310
6816
5988
4584
3454
2862
2714
2888
3648
5058
6796
7994
7770
6538
4798
3356
2654
2720
3508
4808
6260
6842
6048
4658
3568
3020
2886
3056
3774
5104
6788
7984
7770
6558
4828
3344
2624
2678
3476
4766
6180
6728
5916
4512
3430
2910
2796
2994
3736
5114
6836
8044
7804
6536
4772
3292
2548
2568
3314
4614
6096
6698
5960
4674
3662
3128
2972
3098
3780
5116
6824
8008
7788
6544
4790
3324
2590
2628
3402
4722
6214
6820
6034
4630
3516
2938
2784
2954
3686
5034
6740
7948
7736
6512
4770
3328
2664
2778
3572
4886
6346
6908
6080
4614
3446
2842
2690
2864
3618
4988
6704
7922
7740
6542
4784
3292
2560
2622
3398
4706
6204
6822
6062
4698
3602
3002
2832
3000
3728
5056
6706
7872
7674
6438
4696
3250
2558
2644
3438
4746
6222
6846
6096
4710
3604
3038
2866
2966
3642
4862
6662
7882
7700
6480
4732
3288
2592
2638
3408
4708
6172
6768
6004
4616
3504
2946
2802
2928
3624
4976
6686
7906
7748
6546
4784
3330
2644
2746
3572
4882
6308
6840
6010
4594
3454
2856
2698
2888
3638
4980
6670
7870
7668
6460
4772
3342
2658
2696
3426
4722
6202
6826
6080
4680
3544
2930
2752
2908
3636
4994
6672
7850
7664
6486
4772
3324
2638
2704
3464
4704
6124
6712
5938
4536
3418
2850
2732
2940
3694
5074
6800
8010
7810
6576
4844
3370
2628
2654
3422
4716
6194
6800
6034
4652
3562
2978
2800
2922
3616
4958
6664
7892
7714
6496
4756
3286
2584
2656
3450
4780
6292
6974
6264
4894
3734
3082
2846
2942
3618
4954
6640
7834
7642
6416
4702
3306
2618
2676
3430
4702
6136
6726
5942
4548
3454
2866
2708
2876
3618
5020
6780
8068
7954
6750
5016
3590
2902
2950
3704
5014
6410
7124
6362
4978
3844
3230
3024
3142
3862
5226
6954
8208
8050
6834
5092
3620
2898
2936
3682
4964
6432
7030
6252
4814
3660
3084
2916
3052
3772
5124
6846
8080
7914
6740
5038
3598
2874
2894
3606
4822
6218
6788
6034
4676
3588
3036
2908
3076
3834
5186
6846
8016
7818
6632
4932
3496
2782
2806
3550
4784
6198
6794
6014
4600
3456
2854
2684
2848
3608
4986
6690
7868
7640
6402
4680
3268
2594
2656
3420
4688
6146
6716
5914
4496
3368
2780
2628
2788
3496
4858
6592
7826
7658
6472
4770
3324
2630
2682
3444
4724
6156
6744
5966
4572
3474
2876
2694
2858
3582
4918
6606
7820
7626
6366
4596
3134
2456
2532
3308
4598
6056
6696
5962
4582
3502
2950
2798
2928
3594
4918
6620
7862
7708
6520
4790
3322
2574
2580
3362
4710
6240
6910
6194
4874
3854
3370
3324
3558
4326
5752
7512
8772
8594
7564
5916
4558
3964
4170
5080
6486
8066
8828
8220
6970
5990
5506
5424
5578
6224
7440
8916
9404
9634
8414
6564
4900
3896
3600
3998
4900
6034
6368
5338
3724
2442
1760
1510
1536
2144
3468
5230
6558
6452
5274
3582
2168
1506
1604
2424
3768
5330
6044
5404
4122
3126
2632
2554
2778
3524
4910
6674
7960
7822
6638
4910
3452
2756
2840
3622
4894
6326
6924
6148
4706
3548
2966
2834
3012
3738
5084
6790
8032
7900
6724
5004
3518
2768
2780
3520
4818
6304
6936
6156
4722
3582
3016
2870
3038
3764
5124
6828
8064
7888
6710
5034
3628
2922
2960
3706
4978
6446
7044
6278
4874
3742
3162
2992
3152
3890
5244
6922
8146
7978
6786
5050
3562
2830
2882
3664
4968
6430
7058
6282
4874
3738
3158
3026
3192
3934
5280
6992
8204
8020
6812
5082
3598
2868
2898
3654
4952
6438
7090
6380
5046
3920
3384
3224
3372
4052
5366
7016
8198
8022
6834
5112
3652
2934
2984
3754
5054
6550
7188
6446
5054
3940
3390
3276
3440
4122
5432
7106
8332
8166
6986
5298
3862
3180
3256
4028
5292
6716
7318
6544
5146
3998
3392
3248
3424
4150
5484
7180
8378
8206
7030
5342
3908
3234
3338
4148
5454
6916
7506
6706
5282
4132
3542
3402
3588
4334
5744
7464
8678
8482
7276
5558
4106
3416
3476
4240
5524
6974
7604
6846
5454
4340
3794
3674
3884
4656
6056
7760
8966
8842
7646
5936
4470
3770
3832
4576
5830
7264
7884
7164
5808
4664
4066
3906
4082
4820
6196
7924
9128
9350
7978
6286
4810
4102
4182
4950
6200
7618
8218
7512
6176
5094
4534
4404
4560
5252
6574
8248
9260
9514
8200
6502
5052
4368
4460
5218
6508
7986
8612
7856
6454
5316
4712
4556
4734
5490
6844
8498
9324
9570
8356
6708
5296
4582
4598
5216
6544
7976
8580
7822
6418
5278
4674
4494
4636
5354
6696
8354
9284
9538
8164
6436
4986
4252
4254
4966
6208
7646
8274
7524
6134
4994
4362
4144
4232
4886
6194
7840
9002
8812
7566
5828
4320
3554
3578
4332
5592
6988
7544
6734
5324
4206
3608
3416
3544
4260
5616
7312
8518
8310
7106
5364
3856
3116
3154
3900
5172
6648
7286
6502
5062
3876
3236
3028
3156
3870
5214
6870
8076
7898
6698
4984
3534
2848
2896
3654
4932
6378
6990
6202
4802
3678
3056
2848
2972
3692
5078
6816
8080
7912
6694
4946
3480
2766
2828
3594
4890
6342
6928
6136
4758
3616
2996
2858
3042
3750
5094
6798
8034
7910
6726
4986
3510
2780
2812
3544
4808
6278
6922
6188
4792
3642
3040
2856
3016
3728
5086
6798
8042
7872
6614
4844
3374
2674
2740
3498
4774
6238
6878
6132
4742
3614
3040
2902
3060
3768
5090
6766
7998
7856
6686
4958
3464
2708
2736
3482
4758
6212
6832
6088
4702
3604
3046
2906
3046
3720
5042
6752
8006
7852
6672
4950
3502
2816
2854
3560
4832
6290
6934
6206
4842
3728
3170
3032
3184
3878
5216
6926
8186
8058
6878
5136
3630
2876
2886
3608
4856
6324
6986
6292
4910
3774
3180
3042
3204
3882
5180
6854
8094
7944
6776
5056
3572
2846
2914
3700
4988
6450
7076
6320
4932
3794
3218
3082
3224
3894
5190
6892
8134
7958
6754
5026
3544
2814
2868
3662
5012
6514
7154
6384
4972
3814
3240
3122
3286
3958
5248
6900
8140
8008
6826
5086
3574
2800
2828
3592
4860
6340
7016
6308
4922
3790
3208
3058
3222
3936
5278
6974
8234
8096
6902
5176
3696
2952
2982
3730
5004
6458
7108
6370
4984
3834
3198
3028
3178
3900
5244
6946
8200
8054
6844
5088
3590
2860
2922
3692
4878
6418
7050
6308
4946
3828
3220
3048
3206
3934
5284
6968
8184
8024
6798
5074
3634
2942
2988
3712
4968
6400
7016
6274
4894
3782
3198
3040
3190
3896
5238
6922
8168
8034
6844
5120
3624
2884
2948
3710
4992
6424
7040
6284
4882
3746
3160
2984
3110
3786
5118
6824
8082
7962
6816
5122
3648
2888
2894
3644
4908
6376
7032
6312
4940
3818
3234
3092
3242
3926
5240
6940
8206
8092
6936
5244
3758
3014
3038
3748
4974
6380
6988
6242
4848
3710
3136
3020
3200
3918
5272
6988
8274
8178
7034
5292
3784
3018
3022
3728
4962
6400
7038
6274
4850
3702
3134
3022
3192
3892
5218
6906
8168
8024
6850
5168
3748
3018
3002
3702
4912
6342
7004
6306
4928
3786
3186
3002
3154
3856
5204
6910
8180
8056
6882
5174
3686
2938
2946
3688
4968
6412
7056
6338
4988
3864
3246
3086
3248
3920
5236
6918
8076
8058
6892
5174
3704
2974
3006
3730
4978
6422
7084
6362
4966
3820
3218
3068
3250
3994
5336
7010
8272
8164
6996
5268
3780
3024
3038
3766
5018
6482
7160
6426
5032
3898
3284
3100
3246
3902
5212
6878
8106
7966
6814
5116
3634
2882
2904
3618
4864
6330
7046
6388
5040
3930
3328
3158
3292
4002
5338
7010
8260
8150
7016
5328
3838
3086
3084
3802
5058
6494
7108
6358
4962
3842
3244
3100
3276
3992
5326
7028
8326
8226
7022
5270
3746
2978
2988
3716
4972
6408
7066
6368
4988
3846
3230
3046
3192
3918
5290
6994
8268
8148
6992
5268
3738
2954
2966
3714
5004
6474
7140
6424
5008
3870
3260
3078
3214
3926
5278
6962
8228
8136
7000
5292
3822
3078
3056
3758
5000
6424
7058
6334
4964
3868
3332
3198
3342
4026
5374
7092
8390
8298
7130
5372
3842
3080
3106
3854
5086
6520
7168
6460
4986
3952
3348
3196
3356
4028
5314
6988
8272
8168
7002
5262
3764
3036
3078
3828
5088
6552
7218
6482
5084
3920
3272
3062
3216
3950
5318
7038
8300
8166
7000
5280
3790
3046
3088
3866
5178
6658
7336
6600
5156
3974
3356
3180
3308
3960
5250
6910
8182
8066
6956
5304
3866
3146
3180
3944
5188
6646
7304
6560
5140
3996
3386
3224
3354
4018
5308
6964
8248
8174
7030
5320
3826
3072
3080
3808
5106
6588
7286
6548
5122
3970
3366
3214
3356
4020
5326
7020
8312
8216
7042
5334
3836
3094
3120
3844
5080
6516
7178
6440
5036
3886
3306
3172
3366
4080
5456
7194
8478
8354
7158
5428
3932
3134
3090
3798
5064
6540
7254
6560
5182
4048
3462
3312
3484
4190
5534
7248
8544
8474
7350
5640
4150
3404
3412
4128
5368
6828
7474
6684
5228
4054
3472
3368
3558
4246
5554
7230
8486
8404
7286
5608
3996
3368
3418
4156
5402
6836
7518
6828
5438
4274
3646
3472
3576
4214
5530
7228
8516
8434
7292
5594
4096
3286
3242
3928
5166
6618
7296
6586
5198
4064
3496
3350
3474
4166
5502
7196
8484
8382
7198
5442
3882
3044
2994
3712
4944
6378
7084
6394
5008
3852
3272
3140
3304
4000
5318
7012
8292
8184
7000
5254
3758
2990
2980
3672
4888
6314
7000
6344
4998
3860
3258
3102
3282
4024
5396
7100
8388
8264
7064
5300
3794
3026
3010
3734
4974
6394
7070
6372
4992
3844
3236
3078
3226
3920
5280
7008
8316
8252
7132
5436
3930
3110
3064
3762
5002
6440
7116
6402
5038
3960
3408
3250
3390
4062
5360
7040
8342
8258
7132
5420
3916
3156
3210
4014
5342
6884
7680
7066
5704
4608
4094
4030
4234
4958
6322
8078
9244
9516
8690
7176
5844
5204
5354
6208
7566
9016
9430
9618
7814
6594
5848
5530
5436
6060
7234
8694
9342
9570
7794
5716
3834
2758
2502
3020
4114
5470
6068
5234
3696
2428
1792
1638
1808
2508
3902
5698
7142
7188
6148
4552
3166
2528
2652
3442
4722
6220
6954
6334
5002
3906
3348
3212
3348
4000
5320
7036
8376
8324
7202
5496
3990
3234
3270
4000
5234
6660
7340
6638
5226
4030
3390
3206
3336
3998
5308
6984
8296
8254
7158
5474
3988
3232
3208
3924
5220
6714
7426
6730
5318
4138
3528
3368
3528
4194
5490
7156
8456
8390
7218
5496
4016
3246
3234
3944
5180
6660
7382
6736
5374
4230
3618
3460
3626
4322
5640
7288
8554
8474
7336
5618
4086
3294
3276
3952
5150
6606
7366
6732
5400
4270
3678
3506
3640
4312
5608
7296
8596
8522
7356
5628
4104
3342
3362
4088
5332
6766
7460
6768
5374
4214
3614
3488
3662
4346
5660
7322
8594
8488
7354
5636
4124
3352
3354
4076
5292
6820
7564
6894
5506
4352
3724
3532
3666
4354
5682
7396
8738
8724
7600
5878
4344
3534
3498
4214
5486
6954
7666
6984
5592
4412
3772
3618
3798
4510
5860
7588
8938
8966
7788
6064
4528
3716
3668
4328
5548
7024
7766
7106
5756
4632
4042
3874
3988
4642
5996
7710
8980
8988
7786
6074
4592
3832
3846
4586
5850
7328
8054
7372
5962
4798
4184
4034
4216
4930
6276
7970
9166
9448
8178
6462
4934
4138
4106
4806
6098
7630
8402
7770
6430
5288
4664
4474
4606
5278
6574
8236
9268
9530
8422
6760
5252
4468
4438
5134
6396
7888
8632
7998
6646
5506
4904
4754
4900
5574
6884
8560
9342
9582
8962
7086
5578
4798
4814
5548
6790
8226
8918
8254
6906
5760
5124
4958
5100
5774
7032
8652
9362
9600
9004
7026
5490
4680
4628
5326
6566
8038
8806
8192
6844
5656
5040
4872
4996
5602
6846
8480
9248
9532
8546
6812
5270
4452
4420
5122
6348
7782
8454
7740
6336
5140
4494
4302
4402
5010
6252
7868
9098
9314
7982
6254
4682
3832
3776
4476
5696
7112
7800
7090
5670
4486
3826
3634
3746
4388
5698
7400
8732
8690
7550
5806
4240
3378
3308
3978
5208
6648
7370
6708
5308
4120
3492
3332
3494
4170
5460
7112
8434
8394
7292
5624
4124
3298
3200
3862
5108
6574
7304
6638
5244
4090
3478
3286
3392
4016
5312
7026
8378
8352
7236
5486
3930
3102
3058
3740
5004
6484
7224
6568
5210
4044
3416
3236
3346
3990
5278
6956
8270
8226
7112
5430
3912
3110
3044
3710
4924
6386
7144
6524
5154
3992
3376
3208
3338
4004
5296
6970
8296
8234
7084
5370
3818
3002
2974
3672
4932
6418
7162
6506
5120
3966
3366
3224
3388
4068
5362
7016
8320
8254
7126
5446
3946
3146
3120
3806
5022
6468
7204
6544
5048
3986
3338
3152
3306
3982
5276
6970
8310
8278
7164
5452
3916
3118
3094
3788
5034
6510
7266
6622
5242
4054
3438
3246
3360
4028
5350
7024
8328
8266
7142
5472
3996
3226
3238
3954
5176
6594
7290
6614
5236
4062
3422
3222
3336
3994
5308
7008
8368
8340
7232
5508
3984
3190
3180
3874
5080
6512
7234
6586
5220
4036
3390
3204
3362
4058
5342
7018
8362
8336
7216
5500
3964
3162
3126
3794
5022
6500
7290
6684
5332
4150
3482
3280
3380
4006
5290
6958
8298
8264
7146
5426
3898
3104
3082
3820
5098
6608
7384
6748
5372
4208
3568
3368
3438
4052
5346
7054
8416
8394
7254
5534
3998
3202
3170
3834
5020
6424
7170
6554
5216
4054
3418
3230
3342
4006
5312
7002
8380
8402
7298
5564
3980
3124
3078
3760
4982
6462
7268
6656
5310
4148
3512
3310
3418
4052
5344
7000
8338
8316
7208
5496
3978
3180
3140
3822
5052
6506
7262
6618
5226
4018
3344
3160
3318
4004
5296
6976
8322
8300
7182
5466
3940
3160
3132
3798
5006
6466
7258
6644
5274
4080
3430
3236
3342
3934
5172
6830
8198
8218
7148
5478
3936
3126
3116
3808
5036
6502
7264
6636
5260
4100
3470
3280
3380
3998
5254
6960
8338
8358
7260
5566
4048
3226
3174
3860
5082
6542
7272
6630
5244
4040
3388
3228
3370
4006
5286
6982
8362
8334
7202
5512
4002
3216
3174
3828
5042
6512
7288
6670
5308
4100
3444
3246
3348
3950
5200
6864
8204
8184
7072
5280
3850
3060
3054
3756
5002
6510
7312
6688
5296
4122
3488
3292
3414
4046
5318
6976
8284
8228
7110
5432
3942
3180
3194
3934
5188
6652
7414
6786
5376
4136
3458
3266
3352
3982
5278
6972
8346
8358
7252
5534
3984
3146
3106
3828
5098
6570
7358
6740
5394
4222
3578
3392
3522
4156
5390
6998
8288
8200
7058
5358
3834
3038
3002
3698
4912
6352
7104
6488
5144
3984
3330
3154
3300
3948
5224
6898
8266
8256
7164
5510
4028
3256
3250
3966
5192
6618
7354
6684
5262
4064
3446
3320
3468
4106
5394
7086
8454
8454
7330
5594
3988
3120
3058
3736
4968
6438
7218
6624
5258
4056
3404
3216
3350
4012
5358
7068
8432
8420
7310
5598
4034
3198
3096
3720
4908
6362
7154
6534
5156
3990
3378
3220
3380
4044
5348
7050
8468
8502
7400
5664
4068
3218
3176
3862
5106
6582
7358
6738
5346
4096
3394
3176
3282
3946
5264
6950
8298
8330
7280
5628
4120
3286
3198
3832
5018
6470
7244
6610
5192
3960
3298
3096
3214
3886
5224
6948
8364
8392
7278
5556
4020
3220
3178
3846
5044
6478
7250
6622
5238
4046
3386
3178
3294
3922
5190
6878
8286
8354
7318
5660
4124
3286
3210
3840
5032
6486
7278
6674
5314
4142
3494
3312
3444
4090
5376
7056
8432
8442
7352
5658
4110
3278
3244
3962
5214
6680
7458
6796
5356
4130
3468
3300
3436
4084
5360
7012
8344
8368
7338
5698
4158
3316
3268
3950
5178
6656
7484
6858
5430
4198
3538
3362
3486
4112
5388
7074
8480
8496
7410
5742
4238
3426
3372
4034
5222
6670
7448
6858
5540
4424
3822
3634
3702
4312
5610
7280
8616
8600
7472
5732
4168
3352
3320
4000
5216
6680
7498
6928
5594
4410
3770
3594
3750
4422
5714
7336
8658
8680
7606
5930
4376
3492
3284
4044
5260
6734
7530
6918
5508
4272
3578
3364
3460
4070
5334
7036
8410
8386
7272
5574
4044
3214
3180
3908
5200
6740
7554
6920
5458
4148
3420
3192
3302
3928
5204
6886
8262
8286
7202
5538
3998
3150
3068
3728
4964
6454
7262
6658
5264
4036
3362
3176
3250
3854
5168
6892
8310
8344
7258
5522
3942
3072
3026
3734
5010
6544
7386
6784
5364
4106
3408
3192
3280
3906
5194
6870
8248
8294
7246
5544
3958
3100
3052
3740
4998
6496
7290
6650
5208
3972
3348
3206
3390
4066
5350
7028
8402
8454
7398
5690
4102
3216
3134
3804
5040
6500
7276
6642
5266
4104
3514
3420
3666
4442
5858
7610
9016
9312
8118
6446
4922
4152
4196
5016
6418
8058
9022
8614
7384
6308
5748
5642
5808
6430
7672
9084
9440
9652
9816
7364
5694
4730
4466
4870
5806
6978
7430
6460
4748
3264
2404
2058
2040
2536
3708
5378
6824
6894
5878
4254
2770
1982
1944
2620
3846
5342
6220
5692
4402
3326
2818
2780
3022
3732
5102
6894
8366
8442
7358
5626
4062
3268
3284
4034
5310
6744
7478
6800
5386
4164
3466
3218
3312
3988
5284
6962
8336
8382
7320
5648
4144
3374
3348
4002
5184
6628
7426
6830
5444
4208
3512
3308
3414
4032
5326
7018
8408
8460
7386
5672
4110
3290
3244
3958
5234
6724
7542
6926
5526
4316
3644
3454
3588
4248
5532
7206
8602
8644
7538
5830
4256
3380
3280
3940
5192
6686
7460
6808
5416
4216
3580
3428
3596
4256
5546
7242
8622
8646
7554
5848
4286
3418
3326
3970
5200
6704
7560
6996
5648
4462
3836
3678
3796
4386
5640
7292
8656
8698
7630
5926
4348
3500
3442
4110
5322
6786
7558
6944
5574
4376
3732
3542
3668
4338
5650
7328
8726
8780
7716
6008
4408
3512
3402
4058
5274
6754
7602
7044
5712
4534
3882
3694
3806
4434
5728
7432
8848
8960
7870
6160
4550
3686
3610
4292
5518
6972
7770
7166
5790
4582
3944
3806
3968
4606
5866
7542
8926
9082
7940
6256
4692
3838
3784
4468
5688
7132
7920
7328
5978
4828
4186
3986
4094
4706
5960
7634
9020
9310
8086
6422
4886
4044
3982
4672
5902
7374
8208
7632
6262
5058
4402
4250
4420
5078
6350
7992
9198
9492
8438
6790
5240
4388
4286
4916
6116
7596
8430
7868
6552
5386
4752
4590
4732
5358
6650
8356
9312
9562
9074
7062
5452
4580
4522
5200
6404
7828
8612
8020
6676
5510
4880
4666
4758
5370
6646
8312
9296
9556
9124
7126
5568
4720
4706
5412
6654
8132
8956
8342
6922
5666
4956
4728
4798
5364
6570
8184
9264
9534
8748
7042
5478
4596
4476
5080
6250
7670
8470
7874
6484
5256
4592
4370
4436
5034
6270
7906
9158
9408
8216
6466
4842
3956
3896
4558
5754
7204
8012
7440
6072
4830
4112
3876
3950
4538
5780
7400
8748
8772
7660
5912
4304
3414
3316
3970
5170
6630
7480
6912
5558
4356
3696
3482
3574
4166
5426
7118
8550
8628
7524
5746
4092
3182
3076
3738
4962
6430
7250
6646
5244
4020
3362
3174
3314
3980
5298
7002
8462
8550
7502
5742
4084
3152
2994
3576
4762
6240
7116
6578
5232
4010
3344
3154
3250
3850
5118
6796
8238
8326
7274
5576
4002
3134
3030
3658
4880
6386
7238
6644
5246
4028
3376
3194
3328
3936
5196
6880
8320
8390
7340
5664
4080
3188
3042
3660
4850
6292
7104
6510
5130
3932
3284
3114
3266
3918
5226
6948
8380
8416
7326
5634
4064
3212
3116
3724
4888
6350
7194
6626
5272
4074
3432
3258
3342
3896
5122
6776
8182
8230
7148
5472
3942
3132
3066
3690
4856
6308
7162
6606
5244
3940
3378
3172
3280
3880
5140
6802
8218
8290
7238
5568
4014
3176
3122
3790
5000
6462
7296
6730
5324
4096
3422
3230
3340
3960
5238
6910
8308
8336
7236
5550
4008
3156
3062
3688
4878
6348
7190
6630
5274
4100
3466
3260
3344
3936
5190
6878
8298
8364
7302
5606
4014
3126
3040
3696
4940
6450
7326
6766
5366
4094
3366
3146
3266
3924
5236
6962
8386
8450
7386
5672
4062
3154
3034
3622
4810
6304
7204
6696
5350
4136
3436
3168
3242
3848
5120
6790
8218
8314
7272
5556
3944
3046
2932
3574
4778
6234
7054
6498
5182
4018
3398
3226
3350
3956
5190
6844
8246
8336
7304
5620
4022
3120
3020
3684
4928
6394
7242
6662
5268
4014
3332
3148
3264
3896
5170
6834
8270
8356
7332
5664
4084
3232
3140
3774
4964
6406
7212
6588
5164
3936
3250
3026
3116
3744
5052
6776
8224
8278
7176
5514
3952
3004
3024
3672
4898
6366
7210
6622
5218
3960
3236
3012
3108
3720
4994
6684
8140
8254
7244
5598
4032
3152
3050
3704
4922
6394
7210
6606
5196
3936
3256
3062
3192
3810
5088
6772
8198
8268
7212
5528
3958
3068
2960
3628
4860
6340
7206
6626
5196
3928
3182
2924
3034
3652
4934
6634
8108
8254
7272
5646
4100
3218
3088
3642
4802
6296
7196
6682
5334
4104
3398
3196
3322
3924
5156
6788
8222
8334
7282
5578
3968
3056
2928
3550
4774
6276
7150
6572
5168
3920
3226
3008
3102
3706
4990
6730
8214
8302
7222
5502
3924
3050
2922
3534
4736
6222
7104
6612
5300
4096
3402
3168
3232
3814
5062
6708
8110
8198
7148
5460
3878
2992
2906
3582
4816
6328
7214
6640
5258
4010
3314
3078
3176
3800
5080
6762
8180
8262
7210
5500
3896
3014
2930
3606
4844
6340
7214
6694
5344
4126
3414
3176
3238
3680
5024
6668
8100
8202
7188
5522
3938
3058
2946
3586
4796
6306
7220
6712
5362
4160
3472
3244
3316
3876
5052
6616
8018
8124
7112
5464
3902
3038
2932
3534
4716
6178
7068
6558
5254
4090
3420
3196
3290
3868
5104
6782
8266
8386
7320
5590
3972
3080
2964
3596
4820
6306
7180
6628
5240
4012
3326
3102
3184
3742
4978
6654
8124
8244
7182
5478
3898
3080
3024
3656
4868
6344
7210
6656
5278
4010
3276
3046
3124
3676
4926
6602
8066
8216
7200
5530
3954
3082
2982
3600
4768
6230
7122
6634
5300
4084
3378
3154
3272
3886
5182
6862
8304
8406
7358
5670
4058
3144
3004
3588
4778
6240
7112
6584
5250
4062
3394
3166
3236
3804
5040
6678
8114
8218
7196
5532
3962
3104
3020
3652
4848
6298
7178
6676
5334
4106
3430
3276
3410
3990
5212
6832
8236
8330
7262
5538
3906
3008
2928
3588
4818
6254
7214
6712
5376
4158
3468
3240
3324
3892
5128
6794
8248
8362
7296
5600
4068
3242
3172
3812
5002
6464
7358
6858
5492
4210
3488
3272
3388
3994
5254
6928
8386
8512
7498
5850
4282
3382
3242
3844
5006
6438
7314
6822
5508
4272
3550
3316
3428
4050
5308
6994
8490
8642
7596
5902
4302
3414
3292
3908
5084
6522
7382
6838
5452
4188
3488
3298
3416
4018
5260
6924
8372
8508
7496
5824
4202
3282
3122
3740
4956
6440
7360
6858
5480
4210
3478
3228
3290
3840
5052
6688
8148
8304
7298
5636
4028
3090
2908
3456
4622
6124
7090
6604
5266
4050
3372
3180
3268
3828
5038
6680
8122
8230
7184
5486
3868
2988
2912
3568
4804
6312
7244
6714
5308
4022
3262
2998
3090
3696
4978
6672
8136
8262
7218
5528
3950
3076
2964
3574
4772
6264
7182
6660
5296
4070
3354
3088
3152
3724
4992
6672
8132
8266
7252
5590
3994
3066
2948
3582
4782
6272
7218
6734
5378
4126
3444
3234
3344
3956
5244
6968
8498
8732
7798
6220
4724
3932
3906
4576
5820
7398
8428
8088
6898
5796
5218
5124
5320
6000
7314
8974
9428
9648
9832
8082
6384
5312
5002
5450
6520
7864
8604
7816
6118
4498
3404
2844
2654
3028
4088
5608
6956
6980
5844
4086
2470
1620
1544
2184
3392
4902
5886
5468
4206
3052
2474
2378
2572
3216
4520
6302
7878
8070
7074
5394
3814
2918
2794
3424
4648
6162
7136
6674
5330
4100
3430
3262
3404
4002
5218
6838
8304
8452
7446
5766
4148
3242
3118
3732
4906
6390
7306
6808
5448
4192
3474
3232
3298
3874
5124
6780
8268
8434
7416
5728
4116
3186
3028
3602
4782
6276
7242
6806
5532
4358
3686
3434
3476
4020
5212
6814
8236
8362
7388
5784
4218
3302
3168
3820
5046
6530
7446
6932
5566
4280
3538
3314
3412
3976
5226
6888
8368
8550
7564
5890
4280
3366
3222
3790
4968
6438
7382
6932
5612
4372
3666
3454
3538
4104
5340
7018
8504
8662
7624
5928
4306
3378
3216
3786
4962
6438
7384
6934
5608
4368
3646
3394
3466
4024
5250
6912
8406
8598
7652
6038
4440
3460
3262
3844
5032
6524
7488
7034
5654
4390
3678
3470
3530
4096
5360
7060
8590
8822
7862
6234
4642
3702
3546
4104
5256
6694
7606
7136
5776
4498
3788
3606
3740
4360
5608
7268
8754
9002
8000
6318
4646
3674
3528
4152
5382
6884
7830
7352
5974
4670
3950
3742
3842
4400
5634
7320
8832
9166
8132
6478
4886
3942
3782
4356
5534
7012
7966
7532
6182
4892
4156
3932
4050
4674
5946
7610
9052
9402
8416
6778
5166
4254
4142
4772
5948
7404
8368
7938
6582
5270
4494
4236
4328
4918
6138
7810
9172
9486
8826
7124
5528
4586
4408
4956
6112
7558
8494
8028
6686
5410
4682
4462
4530
5096
6356
8068
9256
9528
9422
7248
5614
4648
4500
5112
6280
7718
8646
8204
6876
5632
4894
4632
4686
5226
6424
8036
9228
9510
8794
7068
5464
4528
4388
5012
6198
7642
8572
8084
6684
5340
4536
4252
4300
4818
6010
7636
9052
9402
8306
6612
4934
3932
3742
4298
5464
6936
7900
7470
6124
4840
4082
3836
3894
4408
5566
7148
8590
8760
7736
6060
4436
3514
3354
3928
5086
6566
7560
7134
5768
4432
3646
3352
3368
3862
5042
6670
8170
8408
7464
5812
4212
3276
3090
3636
4760
6180
7100
6626
5266
4000
3276
3038
3110
3644
4848
6492
8000
8190
7200
5564
3972
3030
2860
3418
4600
6110
7092
6638
5270
3988
3246
3008
3090
3608
4796
6452
7966
8176
7218
5606
3996
3032
2842
3384
4534
6010
7010
6610
5284
4020
3308
3060
3122
3704
4940
6588
8084
8274
7290
5630
3988
3018
2810
3360
4506
5968
6954
6524
5164
3884
3180
2964
3040
3580
4780
6440
7954
8156
7176
5520
3908
3002
2878
3492
4682
6152
7114
6674
5310
4000
3244
2992
3086
3630
4826
6454
7976
8232
7304
5672
4018
3046
2874
3464
4648
6126
7130
6728
5382
4090
3362
3128
3182
3700
4880
6490
7978
8188
7210
5560
3914
2966
2806
3388
4566
6052
7052
6632
5302
4022
3260
3026
3122
3670
4852
6484
8014
8268
7328
5708
4060
3064
2846
3378
4550
6056
7086
6698
5402
4164
3438
3200
3246
3730
4894
6540
8074
8318
7348
5668
4026
3082
2918
3448
4586
6026
7014
6618
5304
4062
3360
3182
3288
3834
5012
6628
8160
8422
7462
5784
4134
3182
2996
3536
4664
6104
7076
6624
5248
3948
3210
2972
3046
3590
4828
6504
8034
8284
7348
5714
4068
3104
2922
3482
4632
6108
7102
6708
5378
4092
3336
3088
3154
3676
4848
6454
7984
8226
7280
5638
4026
3088
2926
3480
4634
6124
7150
6750
5392
4092
3346
3074
3108
3606
4772
6406
7938
8198
7310
5720
4112
3136
2922
3412
4524
5954
6964
6600
5308
4032
3278
3036
3102
3600
4746
6358
7908
8190
7270
5658
4046
3048
2816
3330
4466
5936
6960
6612
5308
4050
3302
3018
3054
3580
4780
6462
8026
8292
7356
5716
4066
3076
2862
3392
4552
6044
7074
6674
5348
4044
3276
2998
3044
3572
4772
6430
7966
8230
7294
5664
4030
3074
2904
3446
4494
6042
7064
6674
5340
4054
3296
3024
3046
3510
4662
6306
7868
8158
7258
5638
4018
3074
2900
3458
4606
6066
7088
6718
5370
4056
3266
2984
3070
3610
4776
6384
7920
8200
7258
5574
3896
2912
2714
3262
4422
5908
6986
6658
5366
4092
3304
3044
3102
3620
4806
6424
7954
8264
7374
5740
4090
3104
2886
3404
4530
5980
7008
6620
5290
3986
3222
2982
3062
3578
4764
6418
8000
8320
7362
5662
3966
2972
2740
3282
4470
5960
7028
6712
5440
4190
3434
3150
3148
3598
4708
6302
7884
8242
7348
5708
4056
3044
2828
3346
4474
5918
6918
6528
5262
4032
3278
3000
3074
3604
4782
6422
8018
8368
7460
5822
4146
3122
2876
3372
4488
5948
6994
6662
5360
4062
3290
3034
3098
3598
4746
6370
7932
8250
7386
5798
4140
3112
2904
3422
4514
5938
6976
6652
5372
4118
3398
3170
3238
3748
4880
6358
7948
8220
7294
5684
4046
3086
2886
3410
4548
6006
7042
6698
5428
4152
3380
3110
3178
3680
4782
6362
7916
8246
7328
5696
4048
3046
2804
3314
4476
5994
7052
6696
5384
4104
3350
3086
3154
3692
4888
6520
8060
8350
7432
5810
4178
3200
2986
3508
4626
6060
7082
6704
5370
4070
3288
3002
3018
3510
4698
6364
7984
8358
7490
5878
4188
3124
2870
3392
4530
5978
7062
6762
5466
4154
3344
3054
3108
3612
4774
6402
7952
8288
7388
5776
4134
3130
2878
3394
4514
5962
7028
6706
5418
4118
3314
3010
3064
3574
4756
6392
7998
8366
7506
5924
4268
3260
3042
3566
4716
6182
7190
6792
5432
4084
3280
3000
3062
3580
4744
6392
7976
8336
7440
5808
4152
3170
2958
3476
4606
6072
7134
6810
5488
4168
3380
3086
3114
3594
4752
6388
7990
8362
7490
5878
4194
3138
2876
3390
4522
5988
7072
6706
5536
4274
3542
3342
3470
3998
5154
6746
8304
8646
7750
6152
4476
3426
3154
3620
4726
6172
7232
6952
5722
4454
3668
3366
3406
3896
5060
6688
8274
8644
7776
6172
4510
3484
3236
3738
4858
6300
7370
7058
5756
4464
3682
3392
3416
3868
4980
6550
8104
8460
7592
6000
4318
3258
2974
3464
4576
6026
7088
6762
5486
4230
3492
3246
3292
3750
4866
6456
8040
8412
7556
5930
4226
3174
2924
3406
4502
5930
6980
6648
5350
4064
3290
3020
3098
3612
4762
6406
8010
8374
7488
5856
4176
3146
2890
3366
4484
5964
7086
6812
5512
4178
3392
3120
3154
3612
4706
6284
7862
8258
7432
5848
4184
3144
2870
3370
4496
5962
7028
6724
5432
4120
3304
3008
3068
3564
4710
6348
7996
8420
7592
6010
4346
3306
3006
3432
4488
5892
7002
6746
5474
4166
3372
3094
3158
3672
4844
6484
8140
8638
7888
6338
4812
3856
3694
4304
5504
7008
8140
7918
6718
5512
4848
4682
4858
5494
6806
8572
9360
9596
9780
8544
6918
5834
5444
5762
6684
7926
8850
8470
7098
5626
4568
3958
3592
3620
4332
5636
7038
7290
6284
4534
2728
1602
1324
1848
3020
4544
5694
5462
4224
2970
2252
2042
2164
2746
3952
5680
7438
7978
7220
5714
4124
3154
2966
3508
4620
6070
7180
6924
5656
4366
3580
3266
3256
3674
4770
6380
7996
8398
7550
6000
4370
3384
3156
3640
4718
6116
7174
6886
5590
4254
3436
3136
3166
3640
4776
6386
8020
8498
7706
6144
4466
3384
3102
3578
4668
6108
7244
7012
5740
4392
3572
3272
3316
3778
4888
6460
8050
8518
7750
6192
4508
3408
3098
3574
4686
6166
7348
7152
5900
4558
3722
3396
3454
3960
5074
6632
8222
8624
7768
6168
4524
3510
3232
3666
4728
6178
7324
7112
5866
4540
3712
3398
3432
3882
4998
6632
8256
8672
7834
6236
4524
3460
3192
3672
4792
6264
7406
7178
5926
4594
3758
3452
3496
3962
5078
6680
8310
8776
7968
6372
4660
3556
3262
3754
4870
6322
7456
7238
5970
4610
3764
3454
3460
3896
5034
6658
8296
8780
8010
6488
4832
3776
3476
3894
4932
6372
7562
7428
6246
4946
4080
3734
3724
4140
5220
6794
8400
8874
8062
6500
4838
3812
3556
4022
5148
6636
7812
7656
6420
5070
4220
3868
3868
4280
5364
6940
8532
9032
8244
6724
5088
4068
3832
4304
5376
6798
7946
7786
6590
5286
4452
4134
4144
4594
5722
7318
8928
9380
8828
7216
5528
4434
4134
4598
5704
7152
8294
8096
6824
5484
4668
4378
4422
4912
6074
7682
9118
9456
9582
7514
5826
4726
4392
4802
5864
7284
8420
8262
7070
5786
4972
4660
4684
5134
6256
7866
9198
9496
9686
7708
6004
4882
4552
4854
6014
7470
8676
8542
7324
6000
5172
4854
4870
5302
6374
7906
9196
9486
9672
7660
5968
4848
4518
4924
5952
7372
8538
8376
7136
5770
4884
4540
4548
4970
6010
7534
9020
9414
8934
7224
5504
4370
4020
4418
5398
6736
7850
7676
6432
5088
4224
3888
3898
4342
5418
6962
8542
9016
8196
6622
4888
3732
3358
3756
4818
6248
7408
7260
6024
4676
3820
3482
3476
3884
4938
6532
8200
8706
7916
6364
4678
3556
3172
3544
4558
5962
7136
6988
5756
4382
3494
3140
3140
3544
4610
6200
7876
8430
7678
6094
4350
3218
2896
3326
4406
5846
7016
6886
5708
4350
3454
3108
3120
3538
4660
6264
7910
8480
7784
6274
4576
3436
3058
3424
4450
5852
7026
6886
5646
4252
3358
3006
3024
3444
4514
6116
7800
8362
7604
6054
4342
3224
2882
3308
4362
5810
7014
6876
5638
4274
3422
3096
3104
3516
4490
6188
7852
8380
7618
6054
4330
3216
2876
3250
4254
5698
6932
6842
5640
4272
3398
3058
3084
3510
4588
6188
7842
8370
7600
6020
4294
3188
2892
3330
4382
5814
7036
6970
5772
4436
3572
3224
3198
3584
4630
6196
7844
8364
7578
6016
4300
3176
2880
3390
4520
5982
7182
7068
5840
4454
3578
3230
3222
3622
4668
6216
7838
8368
7628
6110
4444
3354
2998
3386
4410
5830
7040
6942
5732
4364
3468
3106
3108
3530
4594
6160
7820
8416
7722
6208
4490
3362
3008
3400
4442
5884
7114
7046
5842
4434
3484
3078
3090
3568
4684
6266
7902
8458
7734
6218
4524
3382
3036
3462
4518
5918
7078
6958
5770
4430
3556
3176
3154
3554
4634
6198
7866
8470
7768
6234
4492
3326
2938
3310
4362
5818
7052
6956
5754
4392
3510
3138
3122
3504
4546
6114
7768
8344
7618
6082
4384
3276
2950
3382
4444
5846
6926
6932
5740
4422
3592
3270
3262
3616
4618
6164
7848
8452
7734
6192
4458
3334
2954
3304
4330
5786
7028
6948
5750
4414
3570
3240
3232
3592
4586
6108
7766
8372
7648
6132
4418
3272
2906
3272
4310
5740
6980
6930
5734
4342
3416
3034
3014
3426
4502
6072
7714
8298
7572
6056
4350
3224
2898
3296
4344
5790
7028
6978
5778
4418
3526
3160
3138
3522
4572
6146
7804
8412
7698
6160
4436
3256
2862
3234
4250
5658
6914
6886
5724
4356
3464
3092
3064
3432
4480
6088
7818
8432
7714
6180
4472
3332
2968
3328
4316
5714
6944
6906
5732
4376
3506
3154
3176
3614
4674
6230
7882
8472
7706
6124
4384
3210
2796
3134
4182
5662
6956
6936
5760
4372
3462
3090
3068
3436
4462
6064
7756
8354
7598
6022
4258
3128
2802
3218
4270
5716
6994
7002
5834
4448
3546
3176
3154
3506
4498
6036
7662
8274
7506
6182
4514
3340
2914
3264
4272
5696
6990
6974
5778
4396
3464
3084
3066
3426
4432
5992
7708
8378
7698
6180
4438
3250
2872
3260
4300
5722
7024
7020
5840
4446
3512
3114
3052
3362
4338
5868
7568
8256
7628
6184
4512
3412
3076
3458
4452
5830
7058
7010
5824
4434
3496
3092
3058
3420
4430
5958
7662
8360
7740
6250
4508
3326
2932
3284
4278
5664
6914
6880
5686
4316
3448
3090
3084
3454
4476
6032
7728
8416
7776
6304
4588
3418
3040
3328
4266
5666
6936
6948
5806
4430
3500
3094
3048
3366
4354
5898
7574
8256
7616
6182
4468
3290
2892
3234
4258
5736
7068
7098
5898
4476
3542
3146
3104
3452
4434
5984
7700
8410
7778
6320
4598
3374
2926
3238
4232
5640
6906
6926
5780
4408
3490
3108
3062
3398
4362
5900
7596
8312
7690
6212
4460
3258
2824
3172
4212
5658
6966
7016
5890
4518
3496
3208
3154
3494
4480
6008
7680
8338
7666
6156
4428
3258
2876
3214
4204
5624
6932
6994
5858
4474
3572
3194
3172
3508
4470
6010
7714
8424
7812
6346
4650
3488
3068
3358
4288
5644
6918
6976
5838
4436
3522
3156
3142
3478
4438
5954
7654
8364
7722
6232
4472
3254
2818
3130
4098
5502
6812
6868
5738
4350
3432
3068
3082
3428
4418
5966
7712
8494
7912
6460
4714
3490
3028
3306
4252
5624
6908
6974
5856
4468
3518
3128
3128
3492
4516
6070
7780
8490
7856
6376
4636
3386
2916
3206
4176
5552
6832
6910
5798
4402
3468
3076
3070
3430
4410
5920
7640
8438
7860
6378
4622
3382
2930
3258
4250
5664
6994
7070
5906
4458
3484
3042
2966
3266
4246
5794
7534
8344
7792
6388
4676
3446
2996
3330
4350
5748
7034
7098
5952
4578
3666
3300
3316
3694
4672
6174
7866
8628
8054
6634
4950
3742
3266
3584
4534
5912
7196
7290
6154
4740
3764
3320
3252
3580
4570
6144
7892
8722
8172
6712
4932
3640
3142
3398
4360
5752
7066
7164
6058
4626
3654
3244
3232
3594
4568
6068
7770
8546
7954
6488
4756
3514
3028
3306
4270
5686
7014
7120
5998
4576
3608
3204
3172
3506
4490
6032
7720
8502
7954
6506
4718
3430
2942
3242
4210
5572
6846
6914
5778
4352
3372
2972
2956
3300
4290
5858
7586
8360
7778
6328
4570
3322
2854
3114
4048
5436
6774
6906
5818
4418
3456
3052
3036
3388
4372
5904
7622
8430
7848
6344
4550
3290
2812
3102
4062
5410
6720
6860
5776
4402
3456
3042
2982
3282
4230
5716
7426
8300
7832
6472
4770
3508
3014
3258
4144
5464
6778
6932
5852
4454
3496
3094
3066
3392
4348
5862
7588
8434
7932
6566
4900
3704
3296
3646
4662
6120
7544
7804
6842
5532
4650
4288
4314
4740
5826
7474
9118
9468
9676
9092
7172
6002
5574
5842
6728
8014
9132
9424
8030
6448
5336
4802
4572
4580
5130
6226
7550
8086
7326
5738
3840
2394
1772
1920
2754
4022
5296
5450
4414
3064
2176
1830
1846
2200
3192
4780
6610
7570
7126
5792
4130
2968
2576
2924
3922
5368
6786
7022
5980
4576
3588
3162
3100
3380
4304
5824
7574
8470
7982
6574
4810
3490
2966
3202
4138
5508
6862
7084
6052
4642
3656
3234
3206
3540
4494
6008
7706
8532
8004
6570
4802
3516
3014
3286
4218
5592
6938
7120
6060
4660
3696
3294
3300
3636
4534
5970
7650
8492
7982
6594
4846
3558
3042
3278
4192
5554
6912
7126
6100
4738
3776
3342
3296
3574
4454
5922
7638
8488
8000
6630
4926
3654
3144
3394
4330
5708
7090
7318
6276
4860
3870
3416
3334
3584
4470
5946
7662
8546
8064
6682
4984
3726
3206
3442
4382
5750
7098
7310
6254
4836
3840
3384
3334
3646
4594
6124
7856
8730
8242
6846
5118
3850
3324
3538
4406
5702
7032
7264
6252
4872
3882
3440
3406
3696
4630
6126
7854
8748
8260
6862
5104
3778
3242
3482
4442
5862
7234
7484
6492
5094
4064
3608
3520
3794
4732
6258
7968
8860
8382
7018
5294
4000
3488
3732
4642
6008
7360
7600
6610
5232
4256
3786
3744
4032
4940
6412
8114
9054
8674
7312
5564
4272
3732
3936
4806
6156
7536
7824
6838
5454
4446
4022
3980
4270
5168
6624
8362
9234
9112
7612
5892
4570
4026
4198
5076
6436
7812
8102
7108
5702
4690
4216
4146
4442
5348
6848
8624
9330
9556
7910
6208
4886
4310
4512
5430
6798
8174
8486
7536
6146
5136
4664
4618
4908
5806
7264
8906
9408
9628
8106
6408
5114
4582
4804
5682
6982
8318
8612
7640
6240
5216
4714
4640
4946
5850
7324
8962
9420
9636
8130
6354
4990
4430
4634
5520
6856
8228
8522
7540
6150
5174
4754
4686
4918
5728
7114
8740
9362
9566
7824
6042
4690
4090
4218
5028
6288
7628
7936
6956
5540
4474
3958
3854
4106
4972
6408
8086
9030
8606
7234
5464
4076
3440
3588
4430
5738
7096
7406
6418
4994
3942
3430
3308
3534
4390
5850
7572
8546
8136
6804
5084
3748
3156
3314
4166
5488
6894
7226
6234
4798
3754
3274
3194
3436
4258
5682
7382
8348
7914
6560
4794
3440
2862
3076
3970
5316
6734
7100
6138
4732
3696
3206
3104
3332
4172
5602
7302
8270
7848
6506
4778
3450
2892
3094
3980
5326
6738
7076
6096
4676
3618
3110
3020
3260
4094
5526
7244
8266
7910
6620
4904
3534
2930
3074
3916
5228
6612
6994
6094
4698
3632
3106
3012
3246
4066
5490
7238
8294
7946
6658
4932
3582
2986
3138
3970
5298
6700
7046
6068
4614
3552
3070
2986
3220
4040
5500
7236
8248
7878
6590
4874
3510
2918
3086
3952
5294
6686
7056
6110
4688
3634
3146
3050
3316
4184
5642
7366
8422
8098
6798
5040
3658
3036
3198
4056
5378
6790
7184
6254
4836
3782
3234
3094
3316
4146
5604
7360
8442
8098
6778
5036
3646
3022
3164
4000
5352
6804
7250
6348
4934
3860
3344
3260
3492
4292
5694
7408
8474
8148
6852
5118
3734
3076
3198
4034
5338
6774
7264
6426
5058
3986
3434
3286
3486
4296
5714
7426
8504
8212
6948
5232
3870
3260
3380
4172
5436
6844
7266
6360
4932
3856
3326
3192
3416
4248
5674
7402
8490
8180
6882
5112
3726
3142
3328
4170
5498
6910
7322
6406
5010
3988
3494
3382
3592
4382
5792
7534
8650
8352
7052
5276
3838
3180
3282
4122
5440
6846
7310
6450
5064
3998
3488
3374
3558
4322
5714
7428
8540
8244
6968
5244
3882
3278
3410
4214
5512
6904
7360
6514
5114
4004
3428
3272
3486
4314
5722
7416
8486
8168
6912
5178
3768
3126
3282
4160
5496
6944
7422
6554
5170
4126
3634
3556
3760
4516
5850
7532
8620
8348
7116
5412
3976
3296
3386
4196
5490
6914
7402
6528
5126
4042
3502
3404
3604
4392
5788
7500
8628
8380
7148
5436
4016
3340
3426
4250
5568
6992
7472
6598
5194
4116
3578
3468
3684
4452
5814
7492
8604
8326
7060
5302
3870
3234
3394
4244
5582
7040
7518
6606
5158
4060
3536
3422
3646
4474
5914
7662
8792
8542
7256
5406
4084
3474
3620
4474
5814
7260
7748
6870
5420
4262
3676
3534
3728
4498
5890
7592
8716
8464
7190
5416
4004
3378
3534
4372
5702
7142
7628
6742
5304
4186
3640
3494
3644
4392
5802
7556
8752
8558
7356
5662
4254
3552
3616
4388
5684
7112
7626
6764
5330
4180
3598
3500
3762
4578
5986
7716
8884
8672
7460
5732
4290
3580
3672
4494
5814
7280
7810
6980
5584
4478
3910
3726
3858
4582
5962
7680
8848
8644
7440
5726
4296
3620
3726
4534
5838
7276
7806
7008
5592
4450
3862
3728
3932
4716
6086
7782
8936
8690
7424
5642
4178
3504
3622
4446
5760
7218
7792
7000
5600
4456
3880
3762
3970
4738
6106
7792
8962
8788
7580
5866
4426
3754
3838
4608
5878
7308
7864
7052
5638
4514
3922
3780
3966
4726
6092
7784
8950
8756
7570
5904
4484
3798
3862
4644
5934
7374
7936
7122
5678
4504
3904
3688
3990
4750
6122
7838
9022
8884
7650
5926
4478
3776
3844
4630
5924
7386
7986
7218
5830
4688
4108
3978
4170
4896
6242
7944
9110
9212
7812
6028
4524
3780
3834
4606
5904
7368
7970
7200
5812
4700
4118
3988
4174
4918
6296
8022
9148
9294
7836
6078
4564
3820
3884
4676
6010
7504
8116
7344
5954
4836
4236
4086
4242
4952
6294
7980
9108
9150
7780
6034
4532
3804
3856
4638
5946
7426
8076
7360
5988
4856
4252
4078
4252
5000
6346
8032
9162
9358
7928
6196
4682
3924
3946
4700
5990
7466
8126
7392
5998
4842
4260
4138
4314
5034
6364
8060
9180
9406
7958
6234
4766
4056
4120
4876
6144
7592
8196
7428
6004
4846
4246
4092
4258
4994
6344
8048
9170
9380
7956
6274
4818
4066
4084
4854
6134
7562
8158
7376
5968
4840
4278
4144
4314
5050
6386
8070
9196
9436
8028
6314
4814
4062
4102
4786
6188
7638
8276
7558
6184
5060
4476
4332
4504
5224
6542
8198
9242
9494
8112
6370
4846
4068
4084
4790
6052
7548
8254
7560
6164
5004
4424
4308
4500
5218
6572
8292
9280
9536
8258
6562
5102
4404
4424
5158
6434
7908
8610
7900
6468
5270
4634
4450
4572
5240
6544
8224
9266
9530
8408
6750
5298
4550
4550
5270
6480
7874
8510
7776
6344
5160
4542
4422
4606
5342
6702
8354
9286
9546
8290
6584
5118
4390
4414
5138
6368
7754
8412
7716
6334
5166
4540
4374
4534
5210
6494
8136
9218
9494
8212
6468
4934
4136
4128
4858
6124
7570
8250
7554
6142
4976
4352
4186
4316
4970
6288
7998
9178
9450
8124
6392
4876
4078
4064
4806
6086
7564
8278
7604
6218
5020
4366
4184
4320
5008
6338
8036
9184
9456
8118
6386
4844
4046
4088
4850
6108
7532
8228
7556
6180
5004
4382
4226
4388
5096
6428
8008
9208
9470
8184
6498
4990
4206
4190
4878
6126
7602
8304
7602
6188
4994
4390
4258
4426
5126
6454
8136
9230
9500
8216
6498
4980
4222
4262
5036
6358
7884
8686
8108
6810
5738
5212
5122
5310
6026
7382
9034
9442
9650
9834
8292
6930
6298
6456
7278
8598
9342
9582
9766
9572
7608
6838
6492
6464
6978
8132
9220
9506
9712
9352
6796
4970
3848
3496
3970
5068
6410
7050
6302
4858
3640
2994
2832
2972
3644
4952
6654
8052
8092
7084
5482
4060
3360
3436
4252
5666
7290
8132
7550
6220
5062
4432
4258
4406
5090
6386
8078
9222
9496
8314
6566
4954
4082
4022
4740
6010
7496
8282
7696
6368
5196
4546
4350
4494
5152
6446
8098
9222
9502
8214
6456
4906
4128
4136
4850
6112
7600
8366
7730
6324
5134
4516
4366
4486
5104
6378
8044
9214
9490
8300
6574
4988
4146
4096
4768
6012
7504
8204
7688
6306
5106
4454
4274
4404
5070
6374
8050
9210
9494
8338
6610
5028
4168
4128
4834
6086
7554
8346
7732
6336
5114
4468
4274
4400
5034
6280
7910
9146
9436
8224
6538
4964
4136
4072
4734
5982
7516
8388
7856
6526
5278
4502
4218
4270
4868
6140
7812
9096
9364
8098
6438
4898
4056
4016
4742
6022
7522
8340
7748
6372
5136
4440
4252
4340
4950
6184
7822
9110
9408
8234
6600
5064
4226
4160
4812
6000
7464
8298
7732
6372
5146
4444
4228
4342
5012
6328
8028
9214
9504
8370
6670
5090
4232
4164
4848
6056
7498
8320
7770
6432
5212
4552
4362
4470
5108
6386
8072
9238
9504
8456
6730
5138
4288
4250
4960
6214
7700
8552
7994
6632
5420
4736
4536
4638
5276
6560
8220
9270
9528
8804
7022
5468
4602
4480
5100
6296
7774
8668
8154
6814
5592
4886
4640
4732
5366
6664
8338
9292
9546
9342
7196
5656
4820
4726
5364
6546
7996
8866
8354
7018
5796
5122
4952
5104
5738
7018
8670
9358
9590
9720
7380
5790
4916
4816
5472
6712
8174
9026
8492
7154
5938
5256
5052
5138
5718
6946
8556
9328
9572
9694
7406
5842
4942
4810
5424
6610
8038
8856
8316
6972
5690
4920
4664
4754
5348
6568
8172
9246
9518
8748
6998
5394
4440
4254
4826
5976
7414
8294
7770
6398
5124
4394
4142
4220
4806
6032
7672
9016
9298
8068
6338
4698
3754
3612
4198
5366
6802
7652
7118
5752
4486
3764
3532
3598
4144
5334
6954
8386
8502
7476
5776
4128
3188
3046
3662
4868
6356
7240
6702
5326
4070
3368
3152
3226
3798
5010
6644
8108
8226
7144
5412
3774
2876
2750
3344
4508
5954
6838
6344
5016
3806
3148
2936
3014
3578
4796
6466
7950
8074
7034
5330
3750
2856
2716
3300
4472
5946
6862
6356
4994
3746
2936
2822
2902
3450
4650
6312
7782
7924
6886
5196
3622
2762
2658
3292
4502
5988
6894
6390
5018
3730
2984
2752
2846
3420
4620
6252
7716
7890
6914
5238
3626
2746
2682
3334
4570
6094
7026
6510
5114
3852
3154
2938
3038
3602
4802
6404
7822
7914
6886
5208
3590
2688
2572
3210
4456
5958
6888
6402
5042
3786
3056
2830
2920
3496
4724
6394
7918
8110
7122
5452
3844
2942
2820
3422
4608
6064
6970
6478
5128
3882
3146
2900
2982
3554
4782
6430
7924
8098
7110
5436
3824
2902
2766
3402
4620
6134
7128
6712
5396
4120
3372
3116
3186
3738
4940
6562
8040
8222
7252
5620
4016
3056
2858
3420
4588
6082
7108
6688
5312
4022
3280
3052
3154
3716
4938
6594
8076
8252
7270
5636
4082
3234
3132
3740
4934
6386
7314
6834
5474
4154
3378
3144
3232
3768
4970
6596
8076
8262
7276
5636
4032
3116
2896
3642
4840
6300
7232
6790
5452
4172
3428
3194
3276
3848
5036
6662
8170
8390
7408
5722
4072
3122
2936
3510
4666
6128
7116
6710
5412
4180
3472
3234
3296
3812
4986
6612
8148
8402
7456
5786
4118
3126
2946
3554
4758
6220
7186
6746
5444
4220
3532
3308
3382
3960
5184
6826
8314
8476
7466
5752
4078
3118
2980
3586
4754
6204
7186
6794
5502
4242
3504
3272
3348
3888
5096
6754
8288
8540
7594
5944
4256
3228
2994
3552
4710
6190
7220
6840
5538
4276
3538
3292
3360
3894
5076
6688
8168
8382
7404
5768
4158
3204
3004
3574
4752
6250
7306
6942
5620
4306
3490
3192
3236
3746
4920
6566
8130
8452
7578
5966
4310
3310
3068
3570
4700
6176
7268
6910
5604
4324
3562
3282
3316
3822
4982
6600
8132
8408
7472
5816
4148
3142
2920
3464
4624
6122
7174
6832
5548
4286
3574
3360
3422
3908
4954
6684
8230
8520
7588
5918
4250
3252
3026
3566
4724
6204
7244
6884
5604
4350
3622
3362
3408
3922
5082
6690
8224
8512
7612
5972
4292
3292
3094
3604
4720
6182
7200
6826
5546
4272
3526
3290
3382
3918
5100
6732
8294
8560
7610
5940
4258
3278
3092
3656
4814
6292
7322
6952
5646
4360
3632
3384
3430
3918
5052
6636
8166
8466
7566
5928
4270
3286
3062
3578
4702
6178
7248
6924
5652
4416
3686
3428
3460
3946
5102
6752
8340
8664
7746
6060
4350
3322
3104
3666
4840
6330
7400
7048
5736
4460
3718
3470
3514
3994
5130
6738
8294
8610
7708
6068
4376
3350
3108
3628
4756
6236
7336
7048
5776
4484
3714
3444
3480
3952
5100
6726
8334
8694
7812
6172
4492
3474
3220
3712
4840
6294
7378
7092
5826
4542
3764
3504
3592
4098
5254
6838
8392
8724
7826
6216
4566
3574
3360
3896
5020
6440
7394
7200
5928
4634
3846
3526
3542
4026
5194
6798
8356
8726
7882
6264
4564
3508
3262
3778
4898
6350
7446
7160
5874
4576
3784
3532
3606
4102
5254
6868
8446
8800
7900
6274
4584
3528
3272
3792
4962
6434
7524
7248
6000
4718
3916
3624
3678
4160
5280
6860
8406
8776
7908
6298
4644
3638
3402
3884
4998
6450
7554
7286
6020
4716
3920
3628
3660
4128
5266
6880
8474
8870
7992
6400
4720
3652
3380
3886
5024
6512
7622
7332
6072
4782
3980
3650
3678
4130
5230
6804
8350
8720
7872
6276
4574
3504
3270
3824
5016
6512
7644
7394
6116
4776
3962
3678
3726
4192
5288
6874
8484
8900
8028
6398
4712
3672
3418
3912
5006
6430
7562
7388
6164
4828
4012
3722
3772
4228
5312
6860
8444
8866
8030
6412
4682
3560
3242
3712
4812
6292
7458
7240
6012
4736
3984
3752
3842
4352
5490
7076
8634
9030
8104
6474
4754
3682
3418
3908
5026
6500
7652
7436
6202
4904
4104
3832
3888
4334
5408
6978
8564
9002
8140
6542
4870
3840
3552
4012
5086
6496
7618
7416
6204
4916
4088
3806
3858
4308
5386
6950
8542
9028
8206
6652
4996
3952
3700
4200
5332
6800
7960
7756
6518
5202
4382
4052
4044
4452
5528
7088
8666
9170
8334
6762
5058
4000
3730
4204
5306
6776
7952
7782
6556
5238
4416
4114
4122
4562
5674
7252
8828
9314
8442
6848
5164
4074
3766
4234
5338
6780
7902
7702
6462
5114
4244
3898
3898
4338
5470
7082
8702
9232
8388
6800
5104
4022
3724
4154
5208
6602
7748
7572
6316
4944
4122
3822
3836
4246
5344
6942
8574
9114
8300
6698
4944
3816
3510
3962
5044
6472
7634
7454
6244
4918
4034
3668
3666
4096
5210
6850
8536
9102
8322
6770
5076
3968
3642
4072
5116
6532
7686
7520
6284
4930
4066
3710
3724
4178
5284
6866
8512
9056
8264
6696
5016
3946
3658
4104
5162
6584
7746
7606
6376
5024
4166
3832
3840
4272
5346
6932
8542
9038
8234
6704
5044
3966
3642
4068
5146
6608
7822
7690
6488
5174
4356
4102
4208
4720
5870
7516
9088
9456
9632
7674
6022
4946
4694
5256
6448
8020
9192
9488
8450
7308
6628
6418
6506
6970
8054
9214
9498
9696
9868
9968
7250
5982
5478
5682
6460
7562
8410
7932
6400
4790
3702
3150
2972
3232
4190
5674
7260
7744
6968
5426
3734
2648
2334
2812
3948
5474
6798
6820
5728
4480
3692
3428
3542
4054
5204
6810
8468
9058
8336
6872
5246
4194
3900
4308
5354
6768
7950
7824
6618
5286
4420
4088
4094
4502
5570
7128
8760
9310
8562
7014
5276
4110
3756
4168
5234
6676
7914
7850
6664
5340
4518
4232
4252
4654
5704
7248
8846
9354
8648
7094
5376
4248
3926
4306
5352
6738
7948
7900
6758
5444
4568
4194
4184
4580
5618
7162
8786
9344
8720
7186
5482
4342
3994
4422
5462
6846
8036
7954
6792
5494
4688
4380
4380
4762
5762
7278
8852
9358
8684
7154
5462
4350
4034
4428
5444
6850
8070
8056
6922
5594
4684
4272
4238
4682
5760
7326
8942
9402
9192
7346
5660
4530
4160
4544
5576
6988
8200
8162
7022
5690
4842
4502
4482
4856
5886
7424
9012
9424
9512
7516
5786
4590
4200
4582
5602
6990
8228
8212
7064
5724
4846
4494
4478
4846
5852
7386
8980
9416
9454
7492
5790
4630
4246
4630
5716
7198
8462
8442
7306
5950
5050
4688
4702
5090
6114
7656
9134
9472
9674
7824
6106
4908
4500
4852
5846
7218
8456
8442
7318
5986
5126
4796
4826
5234
6270
7822
9196
9502
9702
8010
6334
5200
4820
5174
6176
7596
8862
8922
7778
6458
5536
5124
5064
5426
6472
8034
9246
9520
9724
8200
6484
5326
4966
5392
6464
7862
9054
9320
8036
6692
5802
5448
5438
5794
6786
8312
9298
9552
9752
8646
6870
5726
5368
5750
6774
8182
9220
9508
8324
6946
6012
5618
5618
6014
7030
8538
9344
9578
9772
9210
7058
5870
5460
5810
6796
8184
9226
9506
8352
7010
6108
5732
5712
6056
7040
8518
9334
9574
9766
8660
6828
5586
5148
5480
6522
7954
9130
9408
8104
6704
5744
5312
5236
5554
6534
8034
9244
9516
9722
8112
6338
5082
4630
4962
5942
7334
8578
8592
7432
6016
5046
4622
4564
4780
5828
7306
8908
9396
9448
7464
5682
4442
4024
4382
5414
6820
8084
8120
6996
5642
4712
4290
4218
4548
5502
7000
8628
9262
8636
7152
5454
4262
3842
4178
5162
6560
7852
7916
6794
5404
4440
4044
4022
4362
5306
6776
8416
9128
8494
7016
5290
4084
3678
4058
5082
6506
7826
7888
6748
5332
4386
3974
3910
4216
5180
6692
8358
9094
8502
7016
5246
4008
3564
3916
4936
6340
7652
7756
6632
5230
4290
3894
3876
4232
5226
6752
8426
9150
8516
7048
5314
4076
3598
3908
4902
6284
7578
7676
6610
5256
4342
3922
3882
4222
5212
6740
8416
9120
8452
6954
5184
3958
3548
3892
4900
6306
7618
7704
6564
5180
4252
3872
3864
4224
5238
6768
8452
9178
8566
7088
5338
4092
3618
3892
4860
6260
7598
7746
6666
5288
4320
3890
3828
4136
5130
6660
8334
9108
8538
7106
5396
4146
3666
4010
4932
6408
7718
7870
6796
5412
4430
3962
3882
4170
5094
6578
8242
9018
8430
7010
5310
4080
3626
3940
4922
6328
7646
7768
6676
5296
4332
3910
3876
4204
5112
6572
8254
9064
8536
7144
5428
4164
3692
3988
4958
6348
7656
7772
6688
5326
4402
3990
3916
4186
5070
6526
8218
9058
8528
7076
5300
4020
3532
3822
4788
6206
7588
7768
6702
5318
4364
3920
3852
4164
5106
6594
8278
9094
8580
7134
5362
4054
3544
3788
4700
6076
7460
7684
6670
5306
4370
3970
3934
4238
5130
6580
8244
9034
8480
7032
5286
4018
3542
3834
4812
6194
7520
7714
6680
5308
4344
3888
3802
4076
4988
6466
8148
8980
8450
7012
5230
3932
3442
3722
4686
6092
7466
7674
6632
5230
4220
3754
3706
4016
4934
6406
8084
8912
8362
6914
5132
3828
3320
3612
4594
6010
7400
7626
6574
5194
4208
3746
3646
3908
4812
6316
7938
8920
8432
7018
5250
3964
3472
3734
4680
6062
7426
7634
6578
5156
4144
3724
3674
3934
4804
6280
7980
8858
8372
6976
5248
3968
3468
3744
4716
6090
7416
7598
6524
5106
4150
3722
3634
3896
4794
6264
7990
8904
8420
6988
5218
3904
3350
3574
4494
5864
7240
7500
6494
5104
4116
3644
3562
3834
4726
6184
7890
8816
8364
7000
5280
3974
3462
3732
4640
5958
7302
7526
6504
5086
4098
3652
3584
3856
4748
6196
7886
8784
8286
6862
5104
3802
3274
3510
4412
5792
7178
7466
6502
5100
4072
3572
3480
3752
4654
6170
7910
8858
8414
7028
5276
3964
3416
3620
4494
5816
7170
7438
6436
5044
4050
3590
3508
3772
4648
6110
7798
8696
8220
6818
5052
3740
3202
3430
4352
5722
7130
7476
6584
5246
4238
3724
3580
3784
4630
6096
7828
8766
8328
6972
5240
3944
3400
3606
4486
5802
7160
7440
6440
5030
4020
3550
3472
3762
4648
6076
7756
8714
8284
6920
5180
3852
3300
3494
4382
5730
7116
7426
6434
5028
4002
3532
3456
3714
4578
6036
7750
8724
8300
6936
5172
3812
3254
3452
4334
5670
7084
7420
6456
5058
4042
3546
3436
3662
4528
6014
7752
8740
8328
6972
5202
3812
3202
3374
4268
5630
7036
7370
6410
5028
4014
3538
3440
3690
4572
6042
7772
8758
8354
6996
5240
3876
3266
3404
4250
5594
7028
7422
6476
5052
3996
3496
3414
3672
4532
5982
7686
8648
8204
6856
5156
3842
3278
3474
4378
5732
7122
7450
6490
5062
3996
3482
3418
3676
4522
5956
7670
8684
8276
6890
5078
3684
3076
3242
4116
5490
6908
7274
6322
4940
3968
3538
3468
3684
4474
5892
7610
8638
8280
6980
5228
3822
3174
3312
4176
5534
6972
7412
6536
5158
4074
3528
3406
3630
4424
5796
7468
8468
8130
6828
5076
3698
3108
3322
4228
5614
7036
7424
6472
5034
4000
3526
3446
3674
4490
5884
7550
8550
8178
6842
5066
3646
3010
3166
4052
5434
6896
7322
6422
5018
3954
3438
3336
3586
4410
5842
7576
8620
8276
6954
5222
3874
3316
3492
4352
5654
7030
7406
6486
5088
4034
3518
3406
3614
4410
5804
7536
8626
8286
6996
5268
3894
3252
3388
4222
5536
6966
7416
6538
5184
4164
3654
3554
3792
4622
6042
7752
8828
8506
7194
5404
3944
3258
3374
4190
5494
6948
7486
6682
5340
4294
3760
3614
3814
4612
6014
7694
8736
8402
7118
5376
3970
3318
3456
4296
5628
7040
7464
6538
5086
3964
3430
3336
3558
4368
5790
7484
8582
8314
7034
5268
3840
3196
3338
4160
5464
6876
7342
6428
4966
3870
3326
3210
3396
4170
5554
7246
8362
8064
6770
5042
3646
3008
3150
3980
5288
6732
7238
6384
4958
3874
3344
3246
3458
4238
5624
7340
8456
8128
6826
5078
3674
3042
3152
3936
5176
6550
7012
6164
4790
3746
3226
3120
3330
4140
5550
7276
8396
8114
6816
5064
3668
3040
3154
3950
5262
6684
7180
6340
4936
3846
3298
3166
3336
4116
5524
7254
8398
8140
6888
5142
3688
2986
3070
3892
5250
6728
7270
6426
5056
4048
3586
3530
3806
4684
6234
8094
9202
9428
7964
6278
4906
4304
4494
5414
6836
8384
9072
8456
7276
6350
5892
5788
5972
6694
7976
9196
9492
9704
8898
6854
5298
4370
4156
4634
5594
6662
6862
5764
4166
2904
2244
2012
2096
2750
4040
5712
6892
6690
5492
3808
2426
1778
1912
2800
4216
5804
6476
5742
4424
3404
2920
2852
3080
3882
5310
7086
8330
8142
6960
5266
3812
3056
3062
3822
5150
6662
7242
6452
5096
4012
3436
3286
3470
4250
5648
7356
8544
8338
7106
5334
3854
3146
3106
3984
5286
6732
7304
6476
5060
3916
3310
3198
3440
4242
5604
7284
8474
8292
7116
5444
4020
3286
3288
4050
5360
6816
7400
6606
5186
4056
3486
3344
3536
4314
5706
7394
8586
8372
7118
5336
3848
3178
3306
4156
5518
6996
7524
6662
5214
4072
3478
3342
3516
4250
5602
7322
8536
8346
7130
5392
3936
3236
3302
4066
5350
6798
7408
6658
5270
4130
3552
3436
3620
4362
5754
7478
8726
8620
7452
5730
4244
3538
3594
4322
5558
6962
7546
6768
5364
4238
3682
3552
3740
4474
5868
7640
8902
8770
7550
5780
4250
3502
3512
4270
5552
7010
7664
6956
5600
4460
3826
3664
3844
4590
5974
7710
8936
8800
7568
5818
4338
3606
3638
4412
5710
7186
7814
7056
5640
4516
3942
3796
3968
4678
6014
7712
8948
8826
7616
5884
4388
3650
3704
4502
5830
7334
7994
7268
5866
4714
4108
3972
4162
4890
6142
7958
9130
9290
7884
6176
4712
3972
4002
4754
6044
7552
8270
7572
6144
4944
4296
4136
4312
5060
6434
8162
9252
9522
8368
6660
5120
4314
4320
5088
6400
7888
8576
7874
6486
5290
4620
4428
4588
5330
6740
8494
9336
9580
8524
6760
5222
4458
4510
5274
6570
8064
8770
8058
6654
5484
4898
4758
4920
5616
6956
8642
9362
9600
8870
6988
5448
4646
4654
5406
6686
8154
8862
8142
6732
5530
4876
4706
4854
5556
6908
8622
9366
9600
8758
6904
5356
4526
4464
5136
6354
7796
8498
7784
6360
5162
4488
4278
4406
5100
6472
8198
9262
9526
8220
6394
4762
3924
3918
4660
5946
7400
8070
7344
5890
4680
4034
3832
3912
4544
5842
7534
8826
8752
7588
5852
4274
3434
3368
4036
5290
6782
7548
6878
5468
4298
3676
3492
3596
4220
5488
7148
8464
8418
7288
5536
3966
3170
3148
3876
5152
6624
7254
6672
5254
4034
3384
3222
3390
4090
5428
7118
8440
8380
7232
5496
3934
3118
3074
3760
4980
6458
7208
6508
5078
3846
3184
3038
3220
3918
5268
7008
8410
8384
7240
5486
3892
3016
2932
3610
4880
6384
7156
6506
5118
3942
3342
3208
3362
4032
5322
7018
8372
8280
7082
5310
3728
2914
2914
3642
4908
6420
7200
6544
5140
3952
3312
3140
3284
3926
5194
6854
8226
8224
7112
5372
3808
2988
2940
3618
4886
6432
7280
6688
5294
4068
3386
3188
3304
3932
5222
6904
8294
8316
7212
5468
3856
3014
2982
3684
4938
6438
7258
6624
5208
3976
3310
3112
3226
3860
5166
6850
8218
8218
7144
5438
3858
2982
2900
3592
4908
6452
7306
6684
5250
4012
3372
3194
3320
3964
5266
6936
8318
8340
7242
5510
3920
3082
2994
3644
4880
6400
7272
6696
5300
4058
3388
3188
3286
3896
5184
6896
8350
8406
7204
5560
3912
3028
2928
3580
4852
6394
7300
6734
5344
4088
3414
3222
3340
3952
5232
6892
8298
8338
7232
5474
3834
2948
2856
3518
4796
6358
7266
6696
5290
4024
3322
3124
3262
3890
5146
6822
8260
8350
7260
5498
3830
2912
2850
3518
4748
6254
7146
6598
5226
3980
3258
3002
3086
3720
5042
6778
8250
8358
7280
5534
3884
3002
2924
3606
4854
6372
7272
6718
5316
4030
3310
3094
3200
3798
5060
6752
8208
8294
7222
5508
3880
2950
2810
3452
4694
6208
7126
6618
5234
3956
3240
3048
3164
3736
4952
6590
8058
8188
7126
5400
3790
2906
2796
3426
4634
6144
7076
6566
5204
3998
3338
3134
3220
3778
4986
6648
8122
8230
7146
5410
3788
2912
2826
3462
4690
6216
7164
6654
5272
3986
3250
3036
3132
3714
4972
6670
8152
8240
7176
5462
3836
2928
2822
3472
4680
6166
7104
6600
5248
3980
3210
3004
3082
3680
4952
6618
8098
8210
7134
5380
3724
2840
2788
3486
4740
6218
7124
6606
5222
3950
3236
3020
3112
3684
4926
6600
8100
8254
7210
5488
3820
2872
2752
3392
4634
6170
7152
6676
5298
4036
3338
3158
3270
3834
5016
6636
8102
8234
7188
5472
3838
2940
2828
3434
4636
6114
7036
6538
5168
3876
3154
2962
3108
3744
5012
6678
8150
8304
7258
5510
3846
2904
2752
3370
4614
6154
7130
6654
5270
3976
3250
3022
3100
3654
4894
6592
8132
8352
7336
5606
3912
2966
2846
3456
4604
6060
7044
6588
5230
3970
3268
3066
3168
3722
4940
6620
8130
8316
7266
5524
3856
2906
2754
3344
4546
6068
7080
6674
5362
4100
3368
3148
3234
3810
5020
6644
8108
8258
7228
5536
3894
2928
2756
3334
4520
6038
7054
6632
5288
4006
3292
3080
3176
3742
4972
6634
8168
8410
7430
5728
4046
3042
2772
3400
4568
6076
7100
6698
5362
4078
3336
3084
3142
3698
4934
6606
8124
8346
7358
5650
3982
3034
2898
3500
4682
6192
7216
6826
5480
4174
3390
3114
3176
3724
4930
6610
8176
8400
7372
5648
3940
2916
2698
3294
4544
6088
7134
6762
5462
4192
3436
3162
3214
3782
5004
6668
8210
8436
7438
5718
4006
3020
2852
3420
4582
6062
7098
6750
5472
4198
3420
3128
3174
3696
4896
6566
8140
8420
7488
5858
4208
3214
2994
3522
4672
6150
7162
6778
5452
4156
3414
3214
3336
3846
4980
6580
8132
8420
7478
5774
4068
3052
2828
3346
4506
6022
7108
6800
5508
4240
3496
3242
3318
3824
5000
6634
8180
8430
7474
5816
4102
3082
2886
3476
4664
6160
7262
6934
5614
4296
3486
3154
3174
3658
4856
6532
8142
8450
7510
5852
4214
3248
3056
3588
4744
6240
7336
6984
5628
4308
3544
3336
3452
4004
5190
6808
8372
8704
7778
6102
4390
3378
3168
3736
4920
6452
7560
7226
5876
4514
3674
3368
3420
3898
5058
6722
8350
8746
7856
6204
4488
3422
3158
3678
4834
6332
7428
7150
5866
4534
3716
3408
3462
3956
5124
6784
8390
8734
7828
6178
4510
3498
3248
3688
4754
6228
7312
7024
5710
4396
3604
3348
3416
3876
4974
6558
8152
8504
7600
5950
4234
3180
2956
3492
4666
6158
7256
6938
5598
4246
3444
3140
3160
3638
4798
6438
8072
8452
7574
5944
4240
3196
2964
3492
4614
6060
7154
6878
5580
4236
3438
3142
3192
3692
4874
6516
8150
8532
7646
6002
4270
3180
2918
3468
4658
6156
7306
7016
5704
4336
3472
3124
3156
3662
4840
6516
8214
8670
7792
6150
4414
3326
3024
3480
4582
6060
7220
6992
5728
4418
3610
3336
3388
3868
5004
6646
8314
8784
7986
6414
4752
3708
3474
4016
5214
6800
8066
7966
6766
5492
4754
4568
4736
5346
6644
8428
9336
9582
9770
8748
6938
5876
5594
6010
7024
8384
9254
9446
7710
6250
5296
4754
4460
4604
5374
6618
7912
8064
6972
5126
3218
1990
1586
1972
3030
4512
5750
5616
4464
3264
2564
2322
2398
2896
4066
5758
7474
8004
7258
5712
4054
3032
2810
3346
4532
6098
7364
7218
5974
4656
3852
3548
3560
3974
5050
6648
8298
8786
7960
6348
4632
3526
3210
3668
4774
6280
7488
7302
6046
4682
3838
3512
3520
3962
5066
6676
8322
8838
8044
6438
4660
3532
3246
3758
4900
6390
7578
7384
6104
4760
3936
3642
3656
4090
5182
6778
8420
8924
8102
6514
4806
3702
3370
3842
4980
6484
7684
7534
6272
4870
3960
3594
3608
4066
5164
6748
8390
8912
8116
6526
4804
3694
3382
3842
4940
6392
7570
7390
6126
4774
3934
3636
3668
4102
5200
6824
8516
9102
8288
6708
4980
3864
3528
3966
5076
6566
7780
7630
6374
4982
4088
3720
3720
4160
5280
6912
8610
9202
8406
6826
5060
3900
3524
3930
5006
6470
7700
7586
6380
5060
4214
3898
3954
4420
5540
7144
8782
9306
8500
6880
5122
3988
3654
4066
5192
6686
7932
7828
6606
5204
4286
3912
3914
4358
5468
7076
8756
9318
8626
7046
5280
4150
3816
4244
5360
6866
8162
8126
6934
5558
4660
4290
4278
4650
5672
7230
8874
9374
8844
7204
5462
4344
4056
4504
5570
7038
8310
8268
7078
5708
4788
4390
4362
4792
5904
7500
9062
9364
9580
7550
5824
4688
4354
4806
5900
7372
8606
8526
7326
5972
5094
4740
4732
5118
6164
7730
9164
9478
9686
7852
6150
4996
4616
4980
5998
7448
8732
8754
7598
6256
5384
5050
5056
5444
6500
8098
9272
9534
9738
8128
6374
5166
4768
5152
6204
7650
8890
8910
7746
6444
5584
5230
5210
5610
6640
8144
9274
9534
9736
8140
6374
5148
4748
5104
6156
7610
8872
8870
7652
6252
5330
4938
4912
5274
6260
7754
9160
9476
9672
7678
5908
4710
4306
4660
5688
7130
8404
8374
7162
5722
4780
4406
4372
4688
5644
7140
8764
9334
8716
7150
5368
4136
3708
4032
5034
6492
7824
7834
6636
5212
4272
3896
3880
4256
5260
6772
8412
9028
8270
6714
4934
3720
3332
3710
4742
6176
7492
7514
6336
4930
3988
3568
3494
3818
4816
6372
8066
8732
8042
6508
4698
3470
3060
3450
4516
5992
7330
7408
6164
4852
3904
3500
3462
3808
4826
6394
8090
8770
8078
6538
4756
3530
3140
3520
4536
5968
7282
7334
6176
4762
3808
3390
3358
3722
4742
6292
7992
8722
8098
6588
4806
3576
3136
3456
4460
5890
7210
7246
6086
4680
3730
3310
3284
3646
4654
6210
7926
8646
7994
6480
4714
3492
3074
3420
4460
5956
7328
7408
6270
4816
3820
3396
3370
3730
4724
6248
7940
8666
8018
6506
4738
3490
3058
3406
4462
5922
7262
7318
6168
4752
3798
3390
3366
3756
4762
6292
7962
8702
8066
6556
4772
3498
3042
3380
4394
5832
7164
7240
6088
4664
3730
3358
3328
3680
4668
6224
7990
8796
8204
6692
4890
3604
3128
3424
4420
5858
7194
7300
6200
4782
3804
3378
3346
3718
4712
6242
7932
8686
8088
6606
4830
3590
3136
3436
4436
5878
7238
7316
6150
4696
3728
3356
3354
3706
4678
6200
7906
8668
8066
6616
4778
3610
3120
3392
4368
5788
7136
7250
6120
4674
3704
3294
3274
3626
4596
6114
7836
8590
7964
6480
4714
3456
3002
3336
4358
5788
7140
7266
6126
4670
3686
3284
3262
3602
4576
6100
7802
8602
8028
6540
4746
3442
2938
3214
4192
5596
6944
7092
6022
4668
3754
3352
3288
3548
4452
5942
7648
8472
7932
6498
4720
3444
2930
3206
4194
5624
7000
7156
6052
4636
3656
3208
3148
3462
4388
5890
7596
8396
7812
6348
4606
3350
2894
3178
4138
5570
6960
7160
6060
4634
3654
3206
3176
3524
4482
6000
7710
8536
7964
6472
4646
3322
2810
3074
4046
5488
6896
7104
6008
4558
3552
3086
3024
3332
4276
5792
7534
8402
7850
6386
4614
3314
2790
3038
3986
5420
6830
7054
5986
4578
3596
3148
3074
3376
4330
5846
7576
8420
7848
6344
4526
3178
2650
2908
3870
5308
6728
6984
5970
4576
3560
3088
2986
3352
4286
5808
7572
8444
