-51	-59
-59	-66
-70	-78
-63	-69
-57	-65
-57	-65
-65	-72
-65	-73
-65	-73
-66	-73
-71	-78
-66	-74
-64	-71
-62	-69
-65	-73
-64	-70
-54	-61
-51	-59
-52	-60
-52	-60
-50	-58
-32	-39
-23	-30
-6	-13
11	6
34	29
39	34
39	35
51	45
30	24
23	18
4	-1
-3	-9
-13	-21
-19	-26
-32	-39
-47	-55
-56	-64
-65	-72
-60	-67
-55	-63
-53	-61
-62	-70
-53	-60
-51	-59
-51	-59
-44	-52
-42	-49
-40	-47
-35	-42
-47	-54
10	6
111	108
171	170
293	296
441	446
407	409
329	325
-56	-69
-316	-331
-398	-413
-323	-334
-212	-221
-98	-105
-25	-31
1	-6
6	0
5	0
34	29
41	36
46	41
55	51
64	60
61	57
63	58
65	61
76	71
70	66
77	72
89	85
91	87
86	82
96	91
98	95
113	110
121	118
113	110
130	127
143	140
158	155
162	160
174	172
193	191
195	193
205	203
222	220
239	239
263	263
275	275
290	290
309	309
323	324
337	339
351	353
367	369
373	375
385	387
394	396
398	400
402	404
395	398
367	368
339	339
308	307
266	265
236	234
218	216
188	185
153	149
148	144
129	126
126	121
109	105
93	89
90	86
91	87
88	83
87	82
88	84
94	90
100	96
92	89
90	85
97	93
99	95
105	101
109	105
110	105
101	97
116	110
110	107
116	112
121	117
127	123
126	122
122	118
124	119
124	120
124	121
132	130
131	128
131	128
135	131
129	125
124	120
121	117
132	128
124	120
119	115
123	119
125	123
117	114
114	110
116	113
111	107
109	106
118	114
118	113
120	117
116	112
109	105
108	104
110	107
109	105
105	101
107	103
106	100
105	101
103	98
101	97
107	103
119	116
130	126
138	135
157	154
172	170
168	166
173	171
180	178
166	162
145	142
135	132
122	118
111	106
97	92
83	77
59	52
48	42
39	33
40	34
39	34
40	33
30	24
29	23
29	23
30	24
24	18
30	24
33	27
26	20
21	14
38	33
130	127
190	188
240	241
403	407
478	480
395	398
203	193
-190	-202
-335	-351
-327	-341
-234	-245
-131	-138
-28	-34
13	7
14	7
24	18
34	28
39	34
39	33
41	35
39	33
42	36
42	37
45	39
47	41
38	32
38	32
41	36
48	43
50	44
49	44
54	50
63	58
63	58
67	63
72	68
81	78
88	83
91	86
97	93
108	105
113	110
112	109
133	129
150	148
157	155
165	163
183	181
191	190
205	203
210	208
223	222
238	236
244	242
251	249
255	255
255	254
250	248
238	236
226	223
202	200
169	165
140	135
107	102
72	66
44	37
9	2
-11	-19
-26	-34
-54	-62
-66	-74
-75	-84
-82	-90
-92	-101
-96	-106
-101	-110
-93	-102
-110	-119
-108	-117
-109	-118
-100	-109
-108	-117
-110	-119
-103	-112
-104	-114
-115	-124
-116	-125
-113	-122
-106	-115
-104	-113
-107	-116
-106	-115
-97	-106
-103	-112
-109	-118
-100	-108
-94	-102
-96	-105
-100	-109
-106	-116
-108	-118
-106	-115
-101	-110
-98	-107
-105	-115
-112	-122
-112	-121
-112	-122
-120	-130
-114	-125
-119	-128
-120	-129
-115	-124
-122	-132
-126	-135
-125	-135
-118	-128
-118	-128
-120	-129
-115	-124
-116	-125
-129	-139
-130	-139
-124	-133
-117	-126
-114	-123
-121	-130
-119	-129
-120	-129
-119	-129
-119	-129
-113	-122
-116	-126
-120	-129
-115	-124
-95	-103
-89	-97
-75	-83
-61	-68
-44	-52
-34	-42
-41	-49
-38	-46
-45	-53
-53	-60
-51	-59
-80	-89
-86	-95
-88	-97
-97	-107
-124	-133
-132	-142
-128	-139
-147	-158
-138	-149
-133	-143
-122	-132
-125	-135
-132	-143
-129	-139
-121	-131
-121	-131
-117	-127
-116	-126
-123	-132
-103	-110
-34	-39
45	39
92	90
255	257
359	360
310	311
120	108
-281	-297
-442	-458
-450	-465
-365	-378
-261	-271
-164	-172
-112	-120
-89	-97
-83	-90
-68	-75
-65	-74
-67	-75
-63	-70
-50	-57
-39	-46
-45	-52
-40	-47
-44	-52
-45	-53
-39	-47
-27	-34
-23	-31
-16	-24
-22	-29
-14	-21
-4	-10
-1	-8
8	1
7	0
10	3
28	22
42	37
45	38
62	56
71	66
77	71
86	82
108	104
126	123
135	132
143	139
152	149
176	173
190	186
181	178
193	191
212	210
226	225
224	222
233	231
233	230
226	225
207	204
194	192
181	179
156	153
120	116
97	92
73	67
61	55
25	18
2	-4
-1	-8
-11	-19
-16	-24
-23	-31
-30	-38
-30	-38
-35	-43
-36	-44
-22	-30
-22	-30
-26	-33
-33	-41
-27	-35
-22	-29
-19	-27
-15	-23
-10	-18
-4	-12
-9	-17
-11	-19
1	-6
13	6
13	6
8	2
21	14
22	15
16	9
19	12
30	23
36	30
29	22
36	30
25	18
38	31
29	22
21	16
35	29
36	30
31	25
24	18
36	29
35	29
38	32
37	31
39	33
38	33
38	32
41	36
40	35
48	42
43	37
48	43
46	41
50	45
43	38
50	45
56	49
55	50
59	53
63	58
71	67
92	87
97	93
118	114
139	136
146	142
162	158
172	169
167	164
157	154
142	138
137	133
121	116
108	104
107	101
87	82
86	81
77	72
79	73
74	69
77	72
81	75
79	73
78	73
93	87
89	83
83	77
90	85
104	99
108	103
88	84
132	129
227	227
290	290
384	389
549	555
557	562
491	491
140	129
-152	-164
-249	-261
-186	-195
-82	-89
29	24
108	105
146	143
156	152
168	165
183	181
188	185
195	193
206	204
212	211
222	221
224	223
217	216
229	228
235	233
234	232
241	240
244	243
255	254
264	262
267	265
278	277
284	283
280	280
297	297
307	307
311	311
319	318
325	326
338	338
351	352
362	364
372	374
388	391
407	410
415	417
423	425
435	438
444	447
465	468
470	473
476	480
484	489
493	497
497	502
493	498
506	510
495	499
483	486
468	471
450	452
420	423
393	395
362	362
349	349
331	332
312	312
301	301
280	279
274	274
274	273
275	273
270	268
256	255
262	261
272	272
278	277
266	265
269	268
273	271
278	278
279	278
282	282
284	284
288	287
288	288
300	301
309	309
300	300
298	298
306	307
309	309
310	310
310	311
320	320
315	314
310	310
306	307
311	311
311	312
316	317
311	312
311	311
313	313
313	313
308	308
316	316
315	315
318	318
313	314
314	315
322	323
314	315
314	315
317	318
324	324
319	319
318	318
316	317
323	324
324	325
322	323
318	319
329	331
338	339
329	330
329	329
335	335
330	331
320	320
321	322
336	337
336	336
327	327
330	330
335	335
339	340
350	351
370	372
399	402
412	414
416	417
421	423
435	438
432	434
414	416
411	413
407	408
383	384
375	375
375	376
369	369
353	352
340	340
344	344
346	346
343	343
339	339
354	355
354	355
358	358
355	356
360	361
371	372
372	373
369	370
373	375
432	436
527	532
574	580
698	708
854	867
835	844
765	771
362	357
86	79
3	-4
72	68
196	195
317	319
391	393
419	422
432	434
437	440
441	445
444	447
450	453
455	458
454	457
459	462
472	475
479	483
474	477
473	477
478	482
495	499
502	507
493	498
500	504
509	514
508	512
510	515
522	527
529	534
538	544
550	556
557	563
568	573
576	583
589	596
610	617
620	627
630	637
630	638
649	657
671	679
678	686
692	701
710	719
722	732
735	744
742	750
754	763
762	771
765	774
757	767
752	761
737	745
717	725
681	689
655	662
625	632
597	603
562	567
540	544
514	518
501	504
489	492
477	480
463	466
464	467
455	458
451	454
449	451
448	451
441	444
440	444
452	455
447	450
442	444
452	455
450	453
438	441
444	447
456	458
456	460
460	463
451	454
450	453
456	459
455	458
459	462
460	463
467	471
459	462
463	466
463	467
462	466
453	456
447	450
458	461
454	458
452	455
447	449
447	450
447	450
450	453
441	444
441	444
442	445
445	447
435	438
438	441
439	442
439	442
433	436
436	440
438	441
434	438
427	430
435	439
438	441
437	439
428	430
432	434
434	437
433	436
434	437
429	432
428	431
432	435
432	435
428	430
430	433
428	431
427	430
430	432
436	439
425	427
422	425
428	432
433	436
445	448
459	463
487	492
503	508
506	510
496	500
499	504
517	522
496	500
483	487
475	478
465	469
452	455
442	445
431	434
411	413
401	405
390	392
386	388
396	398
392	394
397	399
393	395
388	390
387	389
381	383
390	393
386	387
390	392
383	385
427	432
519	524
565	571
655	666
823	836
842	851
774	783
455	450
124	117
16	9
64	61
170	169
288	290
367	371
394	396
397	399
408	411
417	420
405	407
415	417
416	419
428	430
423	427
426	428
427	430
436	439
437	440
436	439
441	444
439	442
445	448
456	461
457	460
464	468
458	462
465	469
471	475
477	481
477	481
498	503
505	510
511	516
511	515
524	530
542	547
551	556
559	564
574	579
588	595
601	607
608	615
617	625
636	643
645	653
649	657
660	669
673	680
671	679
675	683
662	670
656	662
641	647
602	608
570	575
542	546
499	503
469	473
442	445
418	420
402	404
384	386
378	379
364	365
359	360
350	350
357	358
354	355
341	341
338	338
336	336
341	341
336	337
331	332
328	328
332	332
335	335
337	337
336	336
335	336
345	346
341	341
340	341
347	348
346	347
341	341
349	350
340	341
339	341
335	336
339	340
337	338
338	339
328	329
326	326
325	325
325	325
324	324
320	321
318	318
315	315
312	312
312	311
311	310
303	303
309	310
307	307
301	301
302	301
294	294
297	297
298	298
301	301
298	298
305	304
299	299
302	301
298	298
291	290
289	288
298	298
283	284
288	288
289	288
290	289
281	279
285	285
287	286
283	282
280	279
286	286
288	287
283	282
276	276
284	284
282	283
285	284
277	277
278	279
287	286
293	294
300	300
322	322
341	343
353	354
349	350
344	345
354	355
363	362
336	335
323	324
323	324
311	311
285	283
285	284
276	274
254	253
237	236
240	238
245	244
242	240
224	222
230	228
239	237
234	233
236	234
237	236
237	235
242	241
233	231
237	236
312	315
396	399
426	431
568	577
699	707
634	640
535	534
127	119
-70	-80
-113	-120
-23	-29
70	67
187	186
244	242
254	254
264	263
271	270
274	273
274	274
271	271
280	280
284	285
287	285
286	286
288	289
293	293
285	285
291	291
304	305
310	311
306	307
315	316
321	322
330	332
333	335
331	333
343	344
345	346
353	354
364	366
372	373
374	376
384	386
391	394
402	405
417	419
427	430
443	446
459	463
475	478
493	497
494	498
504	509
518	522
516	520
526	531
533	538
537	542
536	540
526	531
514	519
487	491
458	461
430	433
397	400
372	373
329	329
311	310
294	293
274	273
262	260
250	248
245	244
232	230
224	222
227	225
224	222
222	220
218	217
212	210
215	213
220	218
225	222
211	209
213	212
220	218
218	217
221	221
222	221
223	222
221	219
225	224
229	228
230	229
222	221
231	230
236	235
238	237
237	237
233	232
230	228
231	229
222	220
226	224
224	223
219	217
220	219
223	222
220	218
216	214
215	213
216	215
217	216
221	219
221	220
211	209
213	211
212	211
205	203
205	203
210	208
207	205
198	197
200	198
209	206
197	194
200	197
204	201
209	207
205	202
205	202
202	200
208	206
204	202
195	194
197	195
199	198
194	192
199	197
204	202
204	202
197	195
189	187
188	185
194	192
186	183
182	180
186	184
187	185
202	200
222	221
254	253
263	262
262	262
267	266
269	268
280	280
270	270
250	250
242	241
225	223
211	209
200	199
197	196
172	171
161	158
158	156
158	156
163	161
156	153
155	153
155	152
161	159
161	158
160	158
161	159
161	159
164	161
152	149
180	180
270	272
329	330
384	390
553	562
601	607
550	556
274	266
-64	-72
-176	-187
-159	-168
-70	-77
54	51
131	129
165	162
170	167
183	180
183	181
190	189
188	186
192	191
191	189
199	197
199	197
205	204
205	204
205	203
204	203
211	209
220	218
213	212
220	219
230	227
232	231
231	230
236	235
246	246
251	251
255	255
265	264
269	269
279	279
284	285
290	291
304	304
323	324
329	330
337	339
352	354
365	367
376	379
381	383
389	392
400	402
397	399
407	411
422	426
424	428
419	423
409	412
409	410
391	392
361	362
336	336
299	299
268	268
242	240
211	209
197	194
175	172
162	158
143	140
137	134
136	132
125	121
119	115
107	104
109	105
105	101
110	106
111	108
114	110
107	103
118	115
114	110
112	108
108	104
110	107
113	109
115	111
119	116
120	117
125	121
127	124
124	120
118	114
127	124
126	122
115	111
114	110
123	120
120	117
115	111
110	107
108	104
107	103
100	96
100	96
104	99
97	93
91	87
93	90
100	95
94	90
89	84
91	87
92	87
89	84
86	81
86	82
84	80
84	80
79	75
85	80
80	74
80	75
77	73
76	72
86	81
81	77
71	66
71	67
85	81
77	72
73	69
78	74
78	74
81	77
78	74
84	80
79	74
75	71
77	73
77	73
89	85
87	83
77	72
85	81
86	82
86	81
88	84
99	94
122	118
142	139
151	148
154	151
160	157
161	159
172	170
165	162
146	142
131	127
114	109
108	104
98	94
97	93
64	59
54	48
47	42
48	44
44	38
41	35
49	43
47	42
45	40
47	42
49	44
49	45
47	41
47	42
49	44
76	72
164	162
222	221
285	288
451	457
487	490
432	434
152	142
-169	-181
-281	-295
-257	-268
-162	-170
-51	-57
24	19
65	60
73	69
76	72
81	76
86	82
93	89
92	87
99	95
99	95
100	96
109	105
112	108
114	110
120	117
121	118
117	114
126	123
133	131
142	139
137	134
145	142
153	151
154	151
161	159
170	168
183	181
194	192
199	197
212	210
219	217
229	227
242	241
259	259
267	266
278	278
292	292
298	298
315	316
327	327
335	336
344	345
355	357
360	362
361	363
366	368
366	367
355	356
333	333
313	312
280	279
241	239
211	208
184	181
168	164
136	132
114	109
99	95
87	83
77	72
67	62
64	60
61	56
57	51
52	46
51	47
56	50
56	52
49	45
54	50
60	56
55	49
61	56
61	56
63	58
70	65
69	64
68	64
70	66
69	64
63	59
72	67
76	71
82	77
76	72
86	81
76	72
78	74
74	70
72	66
72	66
73	69
68	63
74	67
63	58
64	59
61	56
62	56
53	46
54	49
56	51
55	50
60	54
58	52
58	52
60	54
55	51
60	55
54	49
59	54
65	60
61	56
57	51
60	55
57	51
56	51
53	48
58	52
64	59
57	51
53	47
53	48
57	52
55	49
46	40
47	41
54	48
61	55
54	49
58	52
56	50
57	52
58	53
55	51
60	55
58	53
46	41
48	43
55	50
58	52
49	44
69	64
84	80
95	91
116	113
135	131
133	130
121	117
127	125
145	142
132	128
113	109
103	99
90	86
80	75
73	68
63	58
47	42
33	28
33	28
28	23
34	28
32	26
24	18
32	26
29	24
31	26
34	28
38	32
39	32
39	33
41	34
76	74
171	169
212	211
321	325
463	469
444	446
396	393
17	5
-220	-233
-296	-309
-222	-232
-130	-138
-31	-36
45	41
79	75
75	71
74	71
86	82
85	80
88	84
88	83
97	94
111	107
100	96
97	94
110	108
114	111
117	113
119	115
125	122
130	127
135	132
137	134
146	144
154	154
152	150
164	162
167	165
181	179
186	184
195	194
213	212
221	220
222	223
235	235
247	246
260	260
272	273
288	289
309	310
312	314
322	324
332	333
345	347
360	362
363	364
361	363
375	377
373	376
365	365
345	346
329	327
302	302
270	269
238	236
206	204
184	181
150	146
133	129
125	121
116	110
96	91
81	77
79	74
77	73
63	58
59	55
69	64
75	70
66	62
62	58
68	63
69	64
70	66
70	65
70	66
81	76
77	71
72	68
77	72
78	72
79	75
83	79
83	79
87	83
88	84
83	79
85	81
88	83
84	80
87	82
92	88
88	83
81	76
80	75
84	79
82	76
77	72
75	70
74	69
73	67
66	60
71	66
68	63
68	63
65	58
62	57
61	56
64	60
67	63
66	60
63	58
65	60
64	59
65	59
64	59
64	59
64	59
66	62
66	62
59	53
50	45
57	52
63	58
64	60
57	52
64	60
54	49
49	43
53	48
55	51
56	52
61	58
58	53
55	50
52	47
47	42
49	44
55	50
62	57
66	62
56	51
60	55
73	69
93	89
114	109
118	115
128	125
125	121
126	123
148	146
143	139
124	119
107	102
98	94
84	79
75	70
70	65
51	45
39	31
33	27
31	25
33	26
31	25
33	27
25	18
22	15
27	21
30	23
27	22
33	26
37	31
30	24
30	23
79	76
167	164
205	203
334	339
478	481
450	453
326	320
-54	-66
-252	-265
-291	-303
-228	-238
-130	-138
-38	-44
21	16
49	43
49	44
56	51
71	66
77	71
67	63
67	63
87	81
87	83
84	79
90	85
90	85
92	87
95	91
96	92
114	110
114	108
107	103
113	110
122	119
123	119
119	115
131	127
144	140
150	147
156	151
162	158
167	165
179	177
196	195
203	201
213	212
233	232
233	231
245	241
259	258
259	258
272	272
287	288
302	303
307	307
303	304
311	313
318	318
318	319
303	303
288	287
267	266
243	241
214	211
182	178
158	154
135	131
105	100
84	79
74	69
72	68
51	45
39	34
34	28
29	24
28	22
37	31
32	26
26	20
27	22
24	17
27	21
30	24
21	15
30	24
30	24
40	35
37	30
35	29
38	33
50	44
42	35
36	31
42	37
54	49
53	48
52	47
56	51
50	45
46	41
45	40
54	49
60	55
53	48
43	37
48	43
52	47
41	36
41	36
45	40
38	32
34	29
35	30
41	36
35	30
33	28
37	31
31	26
31	25
28	22
38	33
37	32
31	25
36	30
31	26
33	28
43	37
43	37
50	44
48	42
41	35
38	32
45	40
50	44
34	28
36	30
32	27
43	37
51	44
68	64
93	89
104	100
115	111
132	129
138	135
147	145
149	145
138	134
124	120
119	115
104	99
85	80
81	76
57	50
48	42
42	36
42	36
36	30
30	24
32	26
35	29
34	27
32	25
40	35
38	33
46	41
43	37
36	30
28	23
37	32
105	102
170	168
229	230
388	394
476	478
407	409
200	192
-147	-160
-304	-318
-285	-296
-197	-206
-96	-103
-19	-25
25	19
58	53
73	68
77	72
93	88
98	94
104	100
107	102
105	101
107	103
119	115
110	106
115	111
129	126
127	124
124	120
122	118
134	130
135	131
125	121
142	138
151	148
157	154
162	159
158	155
173	171
180	178
179	176
191	189
206	205
219	217
227	226
236	235
251	251
268	267
271	270
276	276
292	292
305	306
309	310
309	310
314	314
321	321
326	327
317	317
315	316
316	317
292	292
269	267
245	243
228	226
203	200
165	162
146	143
127	124
121	117
107	102
94	90
87	83
83	77
75	70
68	63
70	65
66	61
68	64
81	76
73	69
67	63
64	61
77	72
74	69
79	74
70	66
74	70
81	76
79	73
78	74
82	78
81	76
83	78
77	72
79	74
87	83
88	83
77	73
84	79
76	71
81	77
77	73
86	82
74	69
77	71
73	69
79	74
81	76
66	61
64	60
68	63
76	72
68	63
69	64
65	60
64	61
69	64
63	58
65	61
67	62
70	65
68	63
68	63
63	59
57	51
61	55
59	55
65	61
63	58
63	58
62	56
63	58
61	55
62	58
63	59
67	62
72	67
94	89
103	99
121	118
133	130
141	139
155	152
165	162
146	143
131	128
124	121
108	103
92	87
81	77
87	83
65	60
49	43
43	38
37	30
36	29
33	27
36	32
35	29
33	28
38	34
36	30
40	35
51	46
43	38
38	32
46	42
126	125
213	212
265	267
417	422
524	528
444	446
285	277
-124	-136
-301	-316
-341	-353
-238	-248
-116	-123
-2	-8
51	46
71	66
77	73
84	79
82	78
88	84
102	98
110	105
104	100
112	108
116	113
121	117
116	113
123	120
131	127
123	120
127	124
142	139
143	140
148	145
151	148
156	154
169	166
180	177
178	176
190	188
198	197
207	206
207	206
225	224
244	244
250	250
260	260
274	274
296	297
308	308
315	316
327	329
353	355
361	362
370	372
369	370
375	377
382	384
376	377
368	369
358	359
343	344
315	315
275	274
239	238
209	207
180	177
155	152
140	136
122	118
103	99
89	85
86	81
82	76
80	75
69	64
70	65
77	71
62	56
63	58
64	59
63	58
59	53
64	59
67	62
70	64
60	54
66	62
71	65
72	67
72	66
77	72
80	74
81	75
74	68
77	72
90	86
91	86
90	85
86	82
89	84
85	79
81	77
88	83
93	88
96	91
89	84
93	87
90	85
84	79
80	75
82	78
82	76
79	73
82	77
78	73
83	78
86	81
76	71
74	69
80	75
76	70
75	70
81	76
80	75
81	76
72	66
75	69
76	69
71	67
76	71
70	65
74	68
79	74
74	69
77	72
75	70
74	68
73	68
77	72
85	80
87	82
77	72
76	71
77	72
80	75
80	75
80	75
95	90
105	101
124	120
142	139
156	153
164	160
156	154
163	160
163	159
144	139
127	124
117	114
109	105
100	95
98	94
84	79
67	63
65	60
57	52
50	44
54	49
57	51
53	47
59	53
62	57
58	53
59	54
60	54
64	58
64	59
73	68
155	154
235	234
291	292
453	459
568	572
482	486
323	315
-115	-128
-292	-306
-313	-324
-206	-216
-102	-109
12	7
68	63
79	74
77	72
89	84
96	92
101	97
102	97
112	108
121	116
118	113
116	112
123	120
132	128
123	119
126	123
137	133
139	135
138	135
138	134
152	149
158	155
159	155
162	160
171	168
180	177
188	185
197	196
211	208
219	218
228	226
237	235
254	253
274	273
284	283
293	293
313	313
329	330
346	347
354	356
371	373
387	389
387	389
393	395
401	403
405	407
391	392
374	375
350	349
319	319
282	281
247	244
213	210
179	175
149	145
126	122
115	110
94	88
85	79
69	64
62	57
68	62
53	46
51	44
50	45
52	47
48	41
43	37
49	43
46	41
44	38
39	33
42	36
48	42
43	36
40	33
47	41
45	39
48	44
42	35
54	49
58	52
57	51
50	44
52	46
51	45
52	45
54	49
50	44
53	47
51	45
55	49
57	52
58	52
48	41
48	42
49	42
54	48
53	47
38	32
49	43
50	44
44	38
45	39
41	35
45	38
37	31
35	29
35	28
32	25
29	23
28	22
28	22
30	23
27	20
30	23
24	18
34	28
32	25
23	17
25	19
28	21
29	22
23	16
24	17
24	18
21	14
18	11
24	17
19	13
20	13
15	8
22	15
24	17
18	10
17	10
16	8
23	16
20	13
19	13
16	9
22	16
19	12
14	7
18	12
18	11
16	10
15	8
17	10
17	10
13	5
5	-1
15	9
16	9
10	3
8	2
14	8
19	12
24	18
42	35
71	67
98	94
92	87
74	69
73	67
72	67
94	90
75	70
64	58
59	54
42	35
31	25
28	23
28	22
7	-1
-11	-18
-12	-19
-9	-16
-13	-20
-14	-22
-24	-31
-16	-25
-22	-29
-18	-24
-16	-23
-8	-15
-8	-13
-14	-21
-19	-25
-6	-12
58	54
140	137
189	188
328	331
452	455
400	402
315	307
-112	-126
-339	-354
-387	-402
-294	-306
-186	-195
-68	-75
-18	-25
0	-6
10	3
10	4
14	8
23	17
33	27
29	23
31	26
38	32
44	39
34	28
42	37
49	43
50	44
48	43
49	45
56	51
63	58
64	57
67	63
77	73
85	80
87	82
98	93
105	101
117	113
118	114
138	135
148	145
159	156
166	164
173	171
203	202
214	212
223	222
246	245
264	264
280	280
292	292
293	293
313	313
325	326
333	333
327	328
330	332
321	320
292	291
263	263
234	232
196	193
157	153
124	119
102	96
76	71
49	42
29	23
15	8
5	-2
-4	-12
-14	-21
-13	-20
-23	-30
-28	-35
-28	-36
-22	-29
-20	-28
-28	-35
-28	-35
-21	-28
-25	-32
-33	-40
-25	-31
-28	-36
-23	-31
-24	-31
-23	-30
-25	-32
-21	-29
-23	-31
-21	-28
-18	-26
-17	-25
-15	-23
-14	-21
-10	-17
-15	-23
-19	-27
-22	-30
-10	-17
-12	-19
-16	-23
-9	-15
-11	-19
-16	-24
-20	-27
-16	-23
-19	-26
-16	-24
-20	-27
-13	-21
-14	-21
-16	-23
-19	-27
-22	-30
-19	-26
-19	-27
-29	-35
-24	-30
-20	-27
-21	-28
-29	-36
-30	-38
-30	-38
-26	-33
-35	-43
-30	-37
-27	-34
-34	-41
-25	-32
-26	-33
-24	-31
-26	-34
-34	-42
-31	-39
-26	-33
-26	-33
-26	-33
-30	-37
-23	-31
-28	-36
-32	-39
-18	-25
-19	-28
-28	-36
-25	-33
-23	-31
-23	-31
-27	-35
-26	-33
-23	-30
-23	-30
-20	-26
-21	-28
-27	-34
-21	-28
-12	-19
-21	-29
-11	-18
-14	-20
-18	-25
-14	-21
-15	-22
-12	-19
-11	-19
-18	-26
-13	-21
-17	-24
-9	-16
-14	-20
-10	-17
-9	-16
-12	-18
-13	-19
-12	-20
-10	-17
-7	-14
-8	-14
1	-5
8	3
27	21
43	38
56	50
55	49
42	36
42	37
64	60
62	56
48	41
36	30
23	16
18	12
15	8
4	-3
7	0
-15	-22
-19	-27
-22	-29
-21	-29
-20	-27
-11	-18
-22	-29
-23	-30
-15	-22
-16	-23
-16	-23
-18	-24
-10	-16
-11	-17
-13	-19
4	-1
90	87
164	161
206	206
360	363
467	471
393	395
229	219
-184	-198
-342	-359
-348	-362
-256	-267
-143	-152
-44	-51
10	3
14	7
22	16
28	22
36	29
38	32
39	32
43	37
49	43
48	41
55	48
60	55
68	63
60	55
70	65
77	72
77	72
72	67
84	80
91	86
95	91
100	96
110	105
115	111
122	118
126	122
136	133
152	150
159	156
163	160
178	176
202	200
210	209
228	227
236	235
263	263
276	275
295	295
306	306
324	325
334	335
339	340
351	353
361	364
366	368
361	363
349	350
329	330
296	296
266	265
231	229
197	195
162	159
134	130
104	100
81	76
61	55
50	44
39	32
34	28
31	25
10	5
19	13
21	16
21	14
14	8
11	5
17	10
13	6
12	6
21	15
20	14
22	16
22	16
26	20
26	20
26	20
25	19
27	21
31	25
35	29
28	22
32	26
40	35
41	35
37	31
41	35
53	47
44	39
41	36
47	42
54	49
50	44
42	36
46	40
46	41
48	42
45	40
48	42
46	41
42	37
43	37
40	34
43	38
44	38
40	34
44	38
39	33
41	35
43	37
42	36
43	37
46	40
48	42
39	33
45	39
39	33
43	38
47	41
47	42
46	41
50	44
50	44
54	48
49	44
41	35
48	43
56	51
52	47
50	45
53	48
57	52
57	52
52	48
57	52
56	51
53	47
48	43
52	48
64	59
51	46
56	50
55	50
60	55
59	54
59	55
58	53
60	55
49	44
54	48
58	53
62	56
61	56
59	54
62	57
65	61
66	61
60	55
67	62
65	61
62	57
58	53
68	63
73	68
64	60
70	66
75	71
72	68
83	79
101	98
127	124
143	140
127	123
114	111
119	115
138	135
134	130
119	115
108	105
105	101
91	86
69	65
76	71
63	58
55	49
42	37
45	40
49	43
35	30
34	29
39	33
40	34
37	31
37	31
44	39
53	48
42	36
46	41
40	34
73	70
166	164
217	216
291	294
454	460
500	504
448	451
170	158
-188	-200
-312	-325
-298	-309
-199	-208
-87	-93
3	-3
27	22
47	42
53	48
57	51
62	56
66	61
71	66
71	66
66	62
73	69
77	72
77	73
80	74
79	74
85	80
82	77
71	66
81	77
87	83
85	82
89	85
90	87
102	99
104	100
105	102
120	117
128	126
133	130
147	143
147	144
157	155
172	169
186	184
191	189
202	201
219	218
240	238
255	255
266	265
268	267
274	274
294	295
305	306
298	299
295	295
291	292
277	276
250	249
215	212
183	180
141	137
103	98
61	55
39	32
18	11
-6	-14
-29	-35
-36	-45
-54	-62
-62	-69
-66	-74
-67	-76
-73	-83
-88	-97
-92	-101
-94	-102
-89	-98
-100	-108
-97	-105
-88	-97
-100	-109
-112	-122
-112	-121
-105	-113
-111	-120
-116	-125
-116	-124
-110	-119
-111	-120
-118	-127
-114	-123
-110	-118
-108	-117
-118	-126
-111	-119
-107	-115
-116	-125
-120	-129
-122	-130
-113	-122
-122	-131
-128	-138
-126	-134
-120	-129
-128	-137
-135	-145
-135	-145
-131	-140
-134	-143
-144	-155
-149	-159
-152	-162
-156	-166
-159	-168
-159	-169
-163	-174
-165	-175
-169	-179
-171	-182
-172	-183
-164	-174
-181	-191
-179	-189
-177	-189
-182	-193
-190	-201
-185	-196
-186	-197
-186	-197
-193	-204
-189	-199
-189	-200
-189	-200
-203	-214
-201	-213
-205	-216
-202	-213
-209	-220
-205	-216
-204	-215
-212	-224
-215	-226
-212	-222
-210	-222
-210	-221
-213	-225
-215	-226
-219	-231
-225	-237
-226	-238
-226	-237
-225	-237
-224	-235
-231	-243
-229	-241
-228	-239
-231	-243
-236	-248
-240	-253
-230	-242
-228	-240
-239	-251
-239	-251
-234	-247
-228	-240
-245	-257
-244	-257
-241	-253
-244	-257
-244	-256
-237	-249
-234	-246
-238	-250
-245	-258
-249	-260
-241	-253
-244	-256
-257	-268
-254	-265
-255	-267
-249	-261
-250	-262
-253	-265
-250	-262
-244	-256
-248	-260
-243	-255
-227	-239
-203	-215
-196	-207
-194	-205
-200	-212
-207	-218
-194	-204
-186	-197
-203	-214
-219	-230
-232	-244
-243	-255
-246	-257
-255	-267
-256	-268
-271	-284
-276	-289
-286	-299
-291	-305
-292	-305
-280	-293
-285	-298
-292	-304
-282	-294
-282	-294
-287	-300
-289	-302
-283	-295
-281	-294
-285	-298
-262	-272
-168	-177
-98	-107
-41	-46
123	123
198	195
137	135
-94	-111
-477	-495
-621	-642
-623	-641
-524	-541
-413	-426
-314	-326
-267	-279
-261	-274
-261	-274
-249	-260
-238	-250
-236	-247
-238	-249
-228	-240
-226	-237
-218	-228
-223	-234
-216	-227
-210	-222
-211	-222
-206	-217
-201	-212
-195	-206
-191	-202
-197	-208
-185	-195
-169	-179
-168	-179
-166	-177
-155	-166
-143	-153
-142	-153
-136	-145
-121	-130
-106	-115
-99	-107
-85	-93
-73	-82
-56	-64
-42	-49
-33	-40
-12	-19
12	5
22	16
29	23
45	40
63	59
74	70
90	85
93	88
100	96
102	97
90	85
71	65
47	41
10	3
-23	-31
-58	-67
-88	-97
-120	-130
-139	-149
-160	-170
-175	-186
-188	-199
-202	-213
-207	-218
-211	-223
-217	-229
-214	-225
-216	-227
-213	-224
-219	-230
-219	-230
-219	-229
-212	-223
-209	-220
-216	-227
-217	-228
-206	-217
-212	-223
-213	-224
-204	-214
-202	-213
-196	-207
-201	-212
-196	-207
-191	-201
-183	-194
-182	-193
-180	-190
-175	-187
-180	-191
-177	-187
-168	-178
-168	-178
-169	-180
-170	-181
-162	-173
-161	-172
-163	-174
-169	-179
-166	-176
-162	-173
-160	-171
-160	-170
-160	-171
-153	-163
-159	-170
-161	-171
-154	-164
-146	-157
-148	-159
-148	-158
-145	-155
-148	-157
-151	-162
-155	-165
-150	-160
-151	-161
-145	-155
-143	-153
-138	-149
-138	-148
-140	-151
-137	-147
-137	-147
-137	-146
-138	-148
-138	-148
-130	-140
-127	-136
-124	-134
-129	-139
-129	-139
-123	-132
-124	-133
-121	-130
-118	-127
-119	-129
-118	-127
-119	-129
-116	-126
-115	-124
-111	-121
-111	-119
-107	-117
-106	-115
-106	-115
-107	-116
-102	-111
-100	-110
-104	-113
-102	-111
-93	-102
-85	-95
-91	-100
-93	-101
-88	-96
-82	-91
-84	-93
-87	-95
-85	-94
-72	-82
-87	-96
-80	-89
-77	-85
-70	-78
-75	-84
-67	-74
-71	-80
-66	-74
-64	-72
-62	-71
-61	-69
-54	-62
-48	-57
-46	-54
-38	-45
-29	-36
-6	-13
6	0
29	23
13	6
7	1
18	12
36	29
21	13
8	1
1	-7
-14	-21
-16	-24
-30	-38
-19	-27
-37	-45
-45	-54
-52	-61
-49	-56
-40	-47
-47	-54
-46	-54
-49	-56
-35	-42
-36	-44
-38	-46
-35	-43
-30	-37
-22	-28
-27	-34
-6	-11
92	89
165	163
217	218
379	383
459	459
394	398
182	171
-200	-214
-342	-358
-338	-350
-239	-250
-128	-135
-33	-40
7	2
13	6
18	12
33	27
38	31
43	37
48	42
57	52
60	55
59	55
62	58
73	68
77	72
74	69
79	74
92	88
93	89
98	94
102	97
116	112
115	110
122	117
127	123
137	134
146	142
152	148
159	156
168	166
177	175
189	187
207	205
222	221
243	242
253	252
264	263
289	289
302	302
319	320
331	332
343	345
365	367
370	372
390	392
391	394
401	403
396	399
383	384
377	379
350	351
307	307
279	278
247	245
209	207
179	176
153	149
132	128
116	111
97	92
94	89
77	72
72	67
63	57
60	55
65	60
63	58
63	58
58	52
66	61
72	67
65	60
66	62
77	72
71	64
70	65
74	69
72	67
81	76
81	77
83	79
86	82
90	85
85	80
96	91
101	96
102	97
97	93
101	97
107	103
110	106
109	105
108	104
113	109
114	110
110	105
112	107
109	105
111	106
107	103
105	100
107	103
101	97
105	101
104	100
108	103
108	104
103	99
97	92
105	100
106	102
100	95
108	103
107	102
101	96
104	99
109	104
112	108
111	107
106	101
111	107
114	111
115	112
115	112
115	111
110	107
111	107
107	103
109	104
118	114
121	117
111	107
110	106
113	109
112	108
108	105
115	111
114	110
118	114
108	104
113	110
119	115
113	109
110	106
112	107
115	110
115	112
115	110
114	110
110	106
113	109
111	108
114	112
115	111
122	119
117	112
118	115
127	122
125	120
121	117
124	121
127	123
124	120
122	118
119	115
125	121
130	127
124	119
127	123
127	123
127	123
124	120
128	124
132	128
126	122
121	117
127	124
131	128
139	135
141	138
149	146
172	169
181	179
200	197
190	186
184	181
193	191
206	204
194	191
186	184
180	177
162	157
154	150
150	146
153	149
136	131
117	112
114	110
117	113
110	106
115	110
123	119
113	109
119	114
117	112
120	117
126	121
123	119
127	124
127	122
132	129
205	204
285	285
332	334
482	489
588	594
535	540
412	406
-5	-15
-202	-214
-225	-235
-127	-134
-23	-28
80	76
127	124
146	142
148	144
158	155
161	157
160	157
168	164
179	176
177	173
179	176
180	178
179	176
179	177
184	181
191	188
191	189
193	190
202	199
202	199
203	201
209	207
217	215
225	223
228	226
236	235
243	242
253	252
259	258
276	275
282	283
290	290
305	307
318	319
332	333
343	345
357	359
379	380
396	398
411	412
417	420
430	434
447	451
459	462
457	460
458	461
462	466
462	465
446	448
423	425
391	392
357	357
323	322
283	282
249	247
224	221
197	194
186	183
169	166
151	147
136	132
129	125
128	124
122	117
119	115
125	120
124	119
112	107
108	104
109	104
111	107
112	107
110	105
116	112
120	115
118	114
116	111
108	103
111	105
112	107
115	111
123	118
122	117
121	116
120	115
124	119
123	118
122	118
126	122
125	120
128	124
127	123
124	119
124	120
126	121
126	122
123	119
131	127
128	124
119	113
113	109
117	112
114	109
111	107
106	100
113	107
106	101
113	108
101	96
99	95
106	102
100	94
101	96
104	98
110	106
102	97
99	93
104	99
104	99
100	95
101	96
110	105
106	101
104	98
95	90
98	93
97	92
90	84
92	88
99	94
94	88
90	85
86	82
97	92
96	91
97	92
88	83
95	90
96	91
89	83
85	80
97	93
89	84
88	84
84	79
80	75
83	78
87	82
85	80
85	80
89	83
88	83
83	78
86	81
90	85
85	80
87	82
86	82
87	82
76	70
83	78
86	81
86	81
88	83
86	79
84	78
88	83
87	82
94	90
122	117
137	132
142	139
144	140
134	130
145	142
158	154
153	150
133	129
130	126
117	112
105	100
94	89
91	86
75	69
55	49
57	51
52	47
49	44
49	43
44	39
44	38
53	47
50	44
56	50
54	48
54	47
48	43
56	50
57	51
92	89
181	180
227	225
325	329
492	498
505	509
464	463
93	80
-211	-225
-305	-319
-255	-266
-146	-155
-33	-40
25	20
63	58
76	71
79	74
81	75
83	78
89	84
93	89
97	93
98	94
103	98
104	100
112	107
120	115
115	110
119	115
118	114
126	122
124	120
124	121
130	128
146	141
151	147
155	152
155	151
163	160
170	167
178	175
191	189
197	194
204	202
214	212
227	226
240	239
248	246
262	261
278	277
292	291
312	311
319	319
333	334
340	340
345	346
353	354
352	353
361	363
359	360
344	344
317	317
299	298
269	268
236	233
204	200
185	181
152	148
127	122
112	108
93	89
75	68
64	57
58	51
52	46
48	41
39	32
40	32
38	32
38	31
37	31
38	32
41	35
43	36
39	33
41	34
38	31
48	41
37	31
41	35
48	42
52	46
42	36
50	44
43	38
54	48
51	45
50	44
58	51
58	52
53	47
56	51
59	54
58	53
56	51
53	48
55	50
50	43
46	40
48	43
50	44
47	40
40	34
34	28
44	38
39	34
33	27
31	25
37	31
39	34
32	27
32	26
34	28
34	28
32	26
25	19
29	23
32	26
28	25
30	24
33	27
27	22
19	13
25	19
26	20
26	21
28	22
26	23
29	24
31	25
18	13
32	26
31	25
34	29
32	27
36	29
29	25
30	25
26	21
34	29
34	28
32	26
22	16
32	27
37	32
43	37
30	24
26	20
32	27
34	28
21	15
32	26
30	24
33	27
28	21
29	23
32	26
32	26
29	23
33	27
33	28
35	30
33	28
37	32
34	29
36	31
33	28
30	24
40	35
40	34
32	26
30	24
30	24
42	36
40	34
45	41
65	62
88	84
98	94
111	106
96	91
97	93
108	104
122	118
102	97
86	80
77	72
66	61
64	59
48	44
54	49
38	32
22	16
18	12
17	11
20	14
19	13
24	18
26	20
19	12
22	17
25	19
21	14
34	29
33	27
31	26
78	75
171	170
221	219
317	321
475	481
490	493
443	444
89	77
-222	-235
-325	-338
-269	-280
-166	-175
-59	-66
22	17
57	52
53	48
53	47
61	56
78	73
75	70
71	67
80	76
81	76
88	84
87	83
92	88
101	97
98	94
96	92
101	98
108	103
110	106
108	105
120	117
129	126
130	128
134	131
142	141
152	150
157	154
163	162
177	174
187	186
191	189
200	199
220	220
236	236
251	250
261	260
278	278
288	289
305	305
316	317
331	332
342	344
358	360
361	362
365	367
377	379
372	373
358	359
346	346
325	324
288	287
246	244
215	213
183	180
156	153
125	121
105	100
84	79
68	63
59	53
44	38
41	36
41	35
30	24
23	18
27	21
26	20
17	11
20	15
26	20
26	21
21	15
25	18
28	21
27	21
24	18
29	24
30	23
28	22
31	25
33	28
31	25
33	27
32	26
34	28
41	35
46	39
40	34
37	30
39	33
41	35
43	36
45	39
47	41
39	32
39	32
41	34
40	32
41	34
34	28
37	30
40	33
31	25
24	18
23	17
27	20
18	11
24	18
32	26
33	27
22	16
24	18
20	14
30	24
25	19
21	16
23	17
28	22
23	17
18	11
19	14
27	21
19	13
16	10
24	18
20	14
17	11
20	13
21	14
26	19
26	20
21	15
23	16
25	18
22	15
21	15
29	24
25	19
26	20
20	14
22	15
29	23
20	13
20	13
27	21
30	23
22	16
17	10
22	16
30	24
33	27
25	18
22	16
26	20
23	16
21	15
29	22
23	17
23	18
23	16
25	19
26	20
21	16
21	15
26	20
28	22
23	16
27	21
44	39
56	51
66	62
89	84
100	95
84	80
74	68
87	82
104	100
91	86
70	65
63	58
59	54
48	42
34	27
41	34
20	13
10	3
5	-2
-1	-9
-1	-7
5	-1
0	-6
-3	-9
3	-4
-1	-7
2	-4
3	-4
8	2
13	6
10	3
39	35
134	132
188	186
267	270
436	441
464	466
422	423
112	100
-222	-236
-330	-345
-286	-298
-199	-209
-85	-92
0	-6
28	22
33	27
40	35
46	40
46	41
55	50
58	54
65	61
75	70
73	67
69	63
77	72
91	85
83	77
84	78
91	86
96	90
87	82
95	91
102	98
111	107
115	111
122	119
123	120
132	129
141	138
146	143
156	153
173	169
180	177
196	195
209	207
219	216
229	228
244	244
262	262
283	283
294	295
308	308
321	321
334	334
342	343
352	354
366	368
367	369
357	358
349	350
333	333
310	309
272	271
235	231
201	198
172	168
130	126
105	100
95	89
71	65
50	43
35	28
31	24
32	25
22	15
17	10
15	9
6	0
3	-4
5	-1
10	4
6	-1
1	-5
2	-4
5	-2
6	0
6	0
7	0
11	5
10	3
7	1
12	5
15	8
17	10
11	4
19	13
24	18
23	17
26	20
31	25
30	25
31	26
28	22
31	26
36	30
33	27
27	21
22	15
33	27
26	19
24	18
21	14
27	21
24	18
18	12
22	17
19	13
22	16
17	11
11	5
20	13
13	6
6	0
16	9
13	7
15	8
5	-2
6	0
9	2
14	7
5	-2
7	1
13	7
14	6
9	3
7	1
8	1
10	3
13	6
12	5
14	8
14	8
9	2
5	-2
7	1
11	3
7	0
21	14
8	1
7	0
7	1
10	3
13	6
14	6
8	1
2	-5
10	3
12	4
5	-2
10	4
11	5
10	4
13	6
12	5
15	9
15	7
10	3
8	2
9	2
5	-2
2	-5
10	3
9	3
8	1
5	-2
5	-2
7	-1
10	3
20	13
33	27
55	50
76	71
86	80
80	75
74	70
91	86
99	94
73	68
66	62
56	50
38	31
27	21
31	25
15	7
-11	-19
-13	-21
-13	-21
-8	-16
-24	-31
-24	-31
-15	-22
-15	-23
-15	-22
-6	-14
-15	-22
-13	-21
-15	-23
-15	-23
-8	-15
39	34
122	119
164	161
259	261
429	433
416	418
358	353
-37	-52
-298	-314
-365	-379
-308	-319
-201	-210
-89	-97
-26	-33
3	-4
7	0
11	5
16	10
29	22
36	31
38	32
37	31
41	36
52	47
46	40
44	38
49	44
57	52
61	55
57	52
65	60
67	61
67	63
69	64
77	73
92	87
97	92
99	95
105	100
107	103
117	113
122	119
138	134
150	146
157	154
168	165
181	178
199	197
209	208
217	216
241	241
264	263
268	267
274	275
286	286
297	298
307	307
302	302
306	307
308	308
292	293
275	275
255	254
227	225
191	188
150	147
124	119
106	101
74	68
48	42
38	33
25	19
10	3
-2	-8
-3	-9
-4	-11
-11	-18
-19	-26
-9	-16
-13	-20
-15	-22
-21	-27
-17	-24
-12	-19
-16	-23
-22	-29
-7	-14
-12	-20
-14	-21
-16	-23
-16	-23
-15	-22
-6	-13
-7	-14
-4	-11
-1	-8
0	-7
-1	-8
5	-1
5	-1
11	5
-4	-10
-1	-8
5	-1
6	0
3	-4
3	-4
1	-5
2	-4
-3	-10
-6	-13
-4	-10
-10	-17
-14	-21
-14	-21
-9	-15
-10	-16
-23	-30
-15	-22
-16	-23
-19	-27
-18	-25
-17	-24
-13	-19
-25	-32
-22	-28
-19	-26
-13	-20
-22	-30
-24	-31
-18	-23
-14	-20
-20	-27
-29	-37
-25	-32
-14	-21
-19	-26
-22	-29
-15	-22
-16	-23
-17	-25
-24	-32
-17	-23
-15	-23
-20	-28
-20	-27
-16	-24
-16	-22
-19	-26
-24	-31
-17	-24
-13	-20
-23	-30
-31	-38
-24	-31
-22	-29
-20	-27
-24	-31
-22	-29
-14	-21
-20	-27
-18	-25
-14	-20
-13	-20
-19	-27
-20	-26
-12	-19
2	-4
7	1
25	19
48	43
63	59
47	41
36	31
53	47
61	55
52	46
37	31
27	20
14	8
9	1
0	-7
1	-6
-21	-29
-45	-53
-46	-54
-41	-48
-36	-43
-48	-55
-45	-53
-36	-44
-37	-44
-38	-46
-41	-49
-31	-40
-32	-41
-37	-44
-38	-46
-23	-29
65	62
131	128
194	194
355	359
437	438
377	379
187	176
-217	-231
-374	-389
-380	-394
-280	-292
-165	-174
-75	-82
-30	-37
-21	-27
-19	-26
-3	-10
-5	-12
-6	-12
2	-4
12	5
10	3
10	4
14	7
20	13
22	16
23	18
28	22
31	25
28	22
35	29
36	30
45	39
46	40
50	45
63	58
68	63
72	67
77	72
91	87
98	95
105	101
113	109
135	131
144	140
153	151
161	158
184	182
197	195
210	209
223	222
246	246
255	255
267	267
276	276
291	291
296	297
296	295
289	290
284	285
267	266
241	240
202	200
172	169
137	134
91	87
62	56
42	36
23	17
-5	-12
-21	-29
-29	-37
-37	-45
-50	-58
-55	-63
-59	-66
-62	-69
-61	-68
-61	-69
-63	-70
-64	-72
-68	-76
-66	-74
-59	-67
-68	-76
-71	-80
-70	-78
-64	-73
-64	-71
-66	-74
-65	-73
-61	-68
-61	-69
-66	-75
-61	-68
-60	-68
-48	-56
-58	-65
-60	-66
-50	-58
-46	-52
-55	-63
-60	-67
-53	-61
-48	-56
-56	-64
-50	-57
-45	-52
-45	-53
-57	-64
-50	-59
-54	-62
-51	-61
-63	-71
-58	-66
-55	-63
-59	-66
-61	-68
-62	-70
-65	-74
-64	-72
-67	-76
-70	-78
-65	-73
-67	-75
-68	-77
-63	-70
-62	-71
-65	-72
-72	-80
-76	-85
-68	-75
-66	-75
-70	-78
-68	-77
-65	-74
-61	-71
-70	-79
-71	-79
-68	-76
-66	-74
-64	-72
-62	-68
-65	-74
-60	-68
-68	-77
-69	-77
-66	-75
-70	-78
-71	-80
-69	-78
-62	-70
-66	-74
-65	-74
-66	-73
-62	-70
-60	-68
-61	-68
-62	-69
-55	-62
-58	-65
-65	-72
-65	-72
-59	-66
-56	-64
-60	-68
-64	-72
-53	-61
-51	-60
-59	-67
-62	-71
-59	-69
-64	-72
-65	-72
-62	-70
-58	-66
-56	-64
-61	-69
-62	-69
-55	-62
-54	-61
-44	-51
-29	-35
-3	-9
18	11
16	9
14	7
9	3
25	20
34	28
18	11
2	-5
-10	-17
-19	-27
-32	-39
-31	-39
-46	-54
-65	-73
-72	-80
-74	-83
-70	-78
-78	-86
-77	-85
-70	-78
-71	-80
-74	-83
-73	-82
-67	-76
-64	-72
-66	-75
-66	-74
-56	-64
-4	-10
76	72
120	117
236	238
384	387
361	362
308	304
-65	-79
-331	-347
-418	-433
-348	-361
-245	-255
-134	-142
-63	-70
-47	-54
-35	-42
-37	-43
-29	-36
-29	-36
-18	-25
-13	-19
-16	-23
-10	-16
-1	-8
-4	-11
-4	-10
0	-7
10	3
11	4
11	5
13	7
24	18
35	29
32	27
42	36
50	45
52	47
55	50
66	61
77	72
81	76
93	89
102	98
114	111
125	121
133	130
150	147
171	168
187	185
201	199
218	217
236	234
250	249
257	257
275	274
293	293
296	296
299	298
299	299
307	307
292	291
268	266
243	241
207	205
169	165
129	125
101	96
66	61
48	41
16	9
-1	-8
-10	-17
-19	-26
-34	-41
-36	-44
-39	-46
-48	-56
-51	-59
-51	-59
-49	-57
-50	-59
-52	-60
-55	-63
-51	-59
-55	-62
-57	-64
-55	-65
-53	-60
-48	-55
-53	-61
-51	-58
-44	-51
-46	-53
-48	-55
-45	-53
-37	-44
-38	-45
-43	-50
-37	-44
-41	-48
-29	-37
-37	-44
-34	-41
-30	-37
-33	-40
-31	-38
-25	-33
-34	-40
-34	-41
-35	-42
-31	-39
-30	-38
-34	-41
-37	-44
-38	-45
-39	-46
-38	-46
-44	-52
-48	-55
-42	-49
-40	-49
-44	-52
-39	-47
-39	-47
-46	-54
-49	-57
-43	-50
-46	-53
-49	-57
-50	-58
-41	-49
-44	-51
-41	-48
-47	-55
-43	-51
-44	-52
-45	-53
-44	-52
-47	-55
-45	-52
-42	-49
-42	-49
-52	-60
-44	-52
-43	-51
-47	-55
-45	-52
-41	-49
-43	-50
-48	-57
-47	-54
-44	-51
-40	-48
-44	-53
-45	-53
-37	-44
-42	-50
-46	-54
-40	-48
-40	-47
-44	-51
-42	-49
-39	-46
-38	-45
-39	-46
-39	-47
-46	-53
-36	-44
-43	-51
-45	-52
-38	-46
-32	-39
-38	-46
-41	-48
-38	-45
-39	-46
-31	-38
-40	-47
-34	-41
-25	-31
-19	-26
3	-3
26	20
36	30
28	23
20	15
30	24
45	41
47	40
23	17
11	6
7	2
-7	-14
-21	-29
-21	-27
-27	-34
-47	-54
-54	-62
-52	-58
-52	-59
-50	-57
-57	-64
-49	-57
-47	-55
-56	-63
-56	-63
-52	-59
-44	-52
-42	-50
-46	-54
-39	-46
-4	-10
84	80
125	122
209	211
379	382
398	399
346	345
35	21
-284	-300
-396	-411
-349	-362
-249	-259
-129	-137
-59	-66
-32	-39
-25	-31
-15	-22
-12	-19
-8	-15
-2	-9
8	2
11	5
11	5
17	10
28	22
24	18
22	17
33	28
33	28
38	33
38	32
44	39
45	39
50	45
57	52
63	58
69	65
73	68
78	73
93	90
103	98
108	104
116	113
131	128
141	138
154	151
167	165
183	181
197	195
213	212
226	225
246	246
263	263
271	271
279	280
292	292
309	310
310	310
315	315
312	311
301	300
275	273
251	248
217	215
187	184
151	147
116	111
83	77
60	55
32	26
13	6
0	-7
-8	-15
-21	-29
-30	-38
-32	-39
-34	-41
-44	-51
-44	-52
-48	-56
-44	-53
-46	-53
-46	-55
-44	-52
-45	-52
-48	-55
-49	-57
-45	-53
-47	-54
-40	-48
-40	-48
-39	-47
-35	-42
-35	-42
-37	-43
-35	-41
-31	-38
-30	-36
-30	-36
-26	-33
-23	-31
-23	-30
-24	-31
-16	-22
-20	-27
-22	-29
-22	-28
-13	-20
-15	-22
-25	-32
-28	-35
-25	-33
-26	-33
-23	-30
-28	-35
-25	-32
-26	-34
-31	-39
-34	-42
-33	-41
-32	-41
-37	-44
-30	-37
-34	-42
-34	-41
-40	-48
-41	-49
-33	-40
-29	-36
-34	-42
-38	-45
-33	-42
-31	-38
-29	-35
-28	-35
-27	-35
-28	-35
-31	-39
-34	-42
-26	-33
-20	-27
-26	-33
-28	-37
-33	-40
-33	-40
-36	-43
-31	-39
-25	-32
-26	-34
-30	-37
-32	-40
-27	-35
-24	-31
-26	-33
-25	-32
-26	-33
-24	-31
-31	-38
-24	-31
-24	-31
-18	-25
-23	-30
-25	-32
-20	-27
-16	-23
-14	-21
-20	-27
-18	-25
-16	-23
-19	-26
-21	-28
-15	-22
-10	-17
-17	-24
-19	-27
-17	-24
-18	-25
-18	-25
-16	-23
-12	-19
-20	-27
-20	-28
-21	-28
-10	-17
8	1
12	6
28	22
45	40
59	53
59	53
58	53
72	66
74	69
55	49
49	43
36	29
21	15
6	-1
8	1
-9	-16
-29	-37
-28	-36
-25	-32
-26	-34
-32	-40
-40	-48
-40	-48
-29	-37
-28	-36
-33	-41
-33	-40
-20	-27
-18	-26
-28	-36
-25	-32
16	11
98	95
142	139
231	232
403	408
429	431
384	383
42	30
-262	-277
-359	-373
-329	-342
-228	-239
-118	-126
-44	-51
-19	-25
-6	-13
3	-3
6	-1
14	7
16	10
28	22
29	23
30	24
37	31
48	42
47	41
40	34
47	42
58	53
53	48
52	47
60	54
68	63
72	66
74	69
81	76
86	82
87	82
90	85
105	100
118	114
123	118
123	119
133	130
151	148
163	160
176	173
189	187
202	200
219	216
234	232
245	244
259	258
272	271
276	275
286	286
296	296
302	301
305	305
301	301
298	297
279	278
253	251
219	216
191	188
160	156
125	120
103	97
78	72
57	50
38	32
20	13
11	3
-3	-11
-8	-17
-12	-20
-8	-16
-16	-23
-22	-30
-19	-26
-17	-24
-15	-22
-24	-31
-21	-27
-16	-22
-15	-23
-20	-27
-15	-22
-10	-17
-7	-14
-12	-19
-8	-15
-6	-12
4	-3
0	-7
6	-1
5	-1
7	0
8	1
14	7
17	10
16	9
15	9
18	11
23	17
20	13
16	9
18	11
20	14
20	13
13	6
15	9
15	8
12	5
9	3
10	3
7	0
1	-6
-1	-8
1	-5
9	4
8	2
-2	-9
1	-5
3	-3
7	2
-3	-9
5	-2
4	-3
1	-6
3	-4
6	-1
6	-1
1	-6
-1	-9
-2	-8
5	-1
4	-2
0	-6
0	-7
2	-4
0	-6
-1	-8
4	-3
2	-5
0	-7
-5	-12
-2	-9
3	-4
7	1
-1	-7
2	-5
9	2
7	0
0	-5
2	-5
1	-5
3	-3
6	-1
2	-4
6	-1
5	-1
2	-4
5	-1
8	2
8	1
0	-6
8	2
13	7
13	6
6	-1
13	7
16	10
14	8
20	15
35	30
57	53
75	70
84	80
83	78
78	74
78	74
88	84
82	78
67	63
61	55
42	37
32	26
29	23
30	24
14	8
-2	-9
-11	-18
-13	-21
-16	-23
-9	-16
-8	-14
-9	-16
-13	-20
-6	-12
-5	-11
-4	-10
-7	-14
-2	-8
5	-1
5	-1
37	33
132	130
180	178
266	269
433	439
449	451
402	402
59	47
-252	-267
-362	-376
-318	-328
-212	-220
-102	-108
-20	-26
22	16
24	18
25	18
29	23
35	30
40	35
45	40
49	44
56	51
54	49
58	53
60	56
67	63
67	63
67	63
73	69
77	73
78	73
74	69
90	85
98	92
95	91
105	101
115	111
123	121
127	124
132	129
144	141
158	155
164	162
174	172
189	187
205	204
217	217
233	233
249	249
266	266
280	279
285	286
298	299
322	324
330	331
336	338
344	346
356	358
342	343
326	327
312	312
294	293
255	254
213	210
179	175
146	142
119	114
86	80
65	60
52	45
26	20
19	13
19	13
7	0
5	-2
-7	-14
-6	-12
-6	-12
-13	-20
-19	-26
-18	-25
-12	-19
-12	-19
-16	-23
-13	-20
-16	-23
-14	-21
-15	-22
-11	-18
-7	-14
-9	-16
-5	-11
0	-6
3	-3
0	-6
-1	-8
5	-1
9	3
6	-1
8	3
12	6
16	9
14	8
13	7
18	12
17	11
9	2
10	4
16	10
17	11
9	2
7	1
9	3
12	6
6	0
4	-2
9	3
5	-2
2	-5
-2	-9
4	-2
5	-1
-1	-7
-7	-14
2	-4
7	1
-2	-9
-2	-9
-1	-8
6	-2
-3	-10
-6	-13
1	-6
1	-6
-5	-12
-3	-10
3	-5
3	-5
1	-7
-4	-11
-1	-8
2	-3
-2	-8
0	-8
-6	-13
3	-4
-2	-10
-1	-7
2	-5
4	-2
-3	-10
-1	-8
-1	-7
5	-2
2	-5
-4	-10
2	-5
3	-4
-1	-8
0	-7
-2	-8
6	0
1	-5
0	-7
8	1
3	-4
-1	-8
-1	-8
0	-7
6	0
-2	-8
-3	-10
1	-6
1	-6
0	-6
0	-7
-5	-11
-1	-7
-2	-8
-7	-13
-2	-8
-1	-10
0	-6
-6	-12
-1	-6
9	3
16	10
33	29
62	58
78	74
71	67
62	57
74	69
91	87
75	69
54	48
49	43
36	30
26	19
10	5
18	12
-5	-12
-28	-35
-26	-32
-22	-29
-26	-34
-27	-35
-27	-34
-28	-35
-28	-34
-25	-32
-29	-36
-24	-30
-17	-23
-15	-22
-20	-26
-12	-18
69	65
141	138
186	186
332	337
446	449
380	384
263	255
-152	-165
-333	-349
-366	-379
-274	-283
-168	-176
-63	-69
-17	-23
-7	-13
-2	-8
9	3
7	1
9	1
14	9
21	15
22	16
28	22
31	25
34	29
37	31
33	28
42	36
44	38
41	35
41	36
52	47
54	49
56	50
61	56
67	63
82	77
77	73
87	84
96	91
108	104
110	106
124	120
136	133
149	146
158	155
173	171
190	189
205	204
214	212
231	231
249	249
268	268
273	272
285	285
298	298
309	311
312	313
314	315
306	307
296	297
268	268
243	242
208	206
174	171
132	128
97	92
71	66
44	38
17	11
2	-4
-8	-15
-25	-32
-32	-40
-39	-46
-47	-55
-48	-55
-53	-62
-51	-60
-54	-62
-53	-61
-58	-66
-55	-63
-55	-63
-55	-63
-63	-71
-55	-63
-49	-57
-48	-56
-58	-66
-62	-70
-53	-61
-48	-56
-55	-63
-52	-60
-43	-51
-44	-51
-41	-49
-39	-48
-38	-46
-38	-45
-36	-44
-37	-44
-35	-42
-35	-42
-36	-43
-26	-33
-28	-35
-31	-38
-41	-48
-37	-43
-35	-43
-39	-46
-42	-50
-41	-49
-39	-47
-46	-53
-43	-53
-43	-50
-40	-48
-40	-48
-46	-54
-47	-54
-48	-56
-43	-51
-51	-59
-50	-58
-45	-53
-44	-52
-49	-57
-50	-58
-49	-56
-48	-56
-49	-57
-52	-59
-48	-56
-47	-55
-56	-63
-50	-58
-42	-49
-41	-48
-43	-51
-45	-52
-49	-56
-41	-48
-48	-56
-42	-49
-39	-45
-40	-47
-42	-50
-43	-51
-41	-49
-36	-44
-41	-49
-45	-52
-44	-51
-42	-49
-42	-49
-42	-49
-36	-43
-33	-41
-43	-50
-36	-43
-39	-46
-40	-47
-40	-47
-35	-43
-27	-34
-30	-37
-36	-43
-30	-36
-31	-38
-32	-39
-34	-41
-32	-40
-31	-38
-27	-34
-29	-35
-26	-33
-27	-34
-25	-32
-30	-37
-26	-32
-11	-18
3	-3
16	11
36	30
48	42
36	30
26	20
40	35
63	58
48	42
30	24
23	17
15	10
3	-2
-5	-11
-4	-11
-18	-25
-36	-43
-46	-54
-45	-52
-41	-49
-38	-45
-48	-55
-44	-51
-30	-37
-31	-38
-33	-41
-31	-38
-35	-42
-30	-37
-29	-37
-28	-35
30	26
115	112
152	150
267	270
415	418
389	390
325	320
-85	-99
-323	-338
-379	-393
-312	-324
-207	-217
-97	-104
-38	-46
-15	-21
-3	-10
2	-5
5	-1
7	2
16	10
27	22
33	28
33	27
34	28
38	32
39	33
33	28
44	39
48	43
50	46
50	45
57	52
63	58
63	59
71	66
72	68
82	77
86	81
88	84
98	94
111	106
114	110
120	117
133	130
150	147
159	157
166	164
186	185
206	205
219	218
231	230
239	239
259	259
270	269
280	281
292	293
305	305
310	311
308	309
305	305
293	294
275	274
251	250
219	217
182	179
144	141
112	108
87	82
61	55
39	33
17	10
2	-4
-4	-11
-14	-21
-23	-30
-27	-33
-30	-37
-34	-41
-45	-52
-32	-40
-32	-40
-44	-52
-49	-57
-44	-52
-43	-51
-45	-52
-43	-51
-42	-49
-40	-47
-43	-51
-43	-50
-37	-44
-35	-43
-32	-40
-30	-37
-30	-38
-29	-36
-27	-34
-29	-35
-21	-28
-19	-26
-17	-24
-12	-19
-10	-17
-9	-16
-19	-26
-18	-25
-14	-21
-12	-19
-16	-24
-21	-28
-22	-28
-19	-26
-20	-26
-21	-28
-20	-27
-20	-26
-24	-31
-29	-36
-24	-31
-26	-33
-29	-36
-33	-41
-33	-41
-29	-36
-30	-37
-27	-34
-25	-32
-31	-38
-32	-40
-40	-48
-34	-41
-31	-39
-33	-40
-36	-43
-32	-40
-32	-39
-34	-41
-34	-42
-32	-39
-32	-39
-33	-40
-37	-44
-31	-38
-29	-36
-34	-41
-41	-48
-34	-41
-32	-39
-35	-42
-40	-47
-37	-44
-34	-41
-43	-50
-43	-50
-34	-41
-34	-42
-35	-42
-38	-45
-32	-39
-30	-37
-36	-43
-31	-39
-38	-46
-33	-41
-40	-48
-44	-51
-37	-45
-31	-37
-37	-45
-40	-47
-40	-47
-34	-41
-40	-47
-38	-45
-31	-39
-26	-34
-18	-26
-3	-10
17	11
34	27
32	26
38	32
51	46
55	50
34	27
20	13
13	6
5	-2
-12	-18
-23	-30
-38	-46
-48	-57
-62	-69
-60	-67
-63	-70
-64	-71
-66	-74
-68	-76
-63	-70
-63	-70
-65	-73
-67	-75
-63	-70
-58	-65
-58	-66
-61	-69
-40	-47
39	35
111	106
167	167
332	336
408	409
357	359
124	113
-246	-260
-394	-409
-369	-381
-295	-308
-190	-198
-94	-102
-66	-73
-41	-47
-35	-42
-27	-34
-22	-29
-21	-28
-11	-18
-5	-11
-6	-13
-9	-14
-4	-10
5	-2
2	-5
1	-5
8	2
13	7
13	8
22	15
30	24
31	25
28	23
33	28
44	39
53	48
54	49
60	54
71	66
72	67
81	77
99	95
106	102
117	114
129	126
139	136
160	157
175	173
187	185
201	199
218	216
227	225
236	235
249	248
260	260
271	271
263	263
261	261
261	260
247	247
225	223
192	189
168	165
137	134
95	91
67	62
45	39
26	20
4	-2
-11	-18
-23	-31
-32	-40
-44	-53
-53	-61
-51	-59
-53	-60
-63	-70
-65	-72
-58	-65
-54	-61
-63	-69
-61	-68
-62	-69
-64	-71
-59	-66
-59	-65
-59	-66
-53	-60
-49	-56
-52	-60
-52	-59
-49	-56
-48	-56
-51	-59
-45	-53
-47	-54
-46	-53
-45	-52
-47	-54
-36	-43
-38	-45
-41	-48
-38	-45
-39	-47
-41	-48
-44	-51
-36	-43
-44	-52
-47	-54
-46	-54
-47	-54
-48	-55
-56	-64
-55	-62
-51	-59
-54	-62
-59	-66
-54	-62
-55	-62
-51	-57
-57	-64
-60	-66
-55	-63
-59	-66
-57	-65
-60	-66
-53	-60
-55	-63
-58	-66
-56	-63
-51	-58
-52	-59
-56	-64
-51	-57
-48	-55
-54	-61
-53	-61
-57	-63
-45	-53
-50	-57
-55	-62
-50	-57
-49	-56
-46	-54
-54	-61
-48	-56
-47	-54
-50	-58
-48	-55
-50	-57
-52	-60
-50	-58
-43	-51
-53	-61
-50	-57
-37	-45
-46	-53
-44	-51
-40	-48
-42	-49
-46	-53
-52	-59
-39	-47
-44	-51
-45	-52
-39	-45
-36	-43
-37	-44
-43	-51
-42	-49
-43	-50
-41	-48
-44	-50
-42	-50
-36	-44
-36	-43
-37	-45
-27	-33
-14	-20
-5	-11
16	10
35	30
51	46
45	40
35	29
47	42
57	52
36	32
17	11
7	1
1	-5
-12	-18
-15	-21
-31	-39
-46	-54
-55	-62
-59	-64
-58	-65
-56	-64
-56	-65
-65	-71
-55	-62
-56	-63
-54	-61
-59	-67
-57	-62
-53	-60
-51	-58
-57	-64
-2	-6
97	95
138	135
255	257
407	411
386	386
327	323
-67	-81
-334	-350
-413	-428
-343	-355
-243	-252
-127	-134
-56	-63
-34	-42
-33	-41
-30	-37
-22	-29
-20	-27
-16	-22
-14	-20
-3	-10
-1	-7
-4	-11
0	-6
7	2
9	3
7	1
8	2
17	12
20	14
22	17
26	20
34	28
44	38
42	37
53	47
63	58
66	62
72	67
82	78
97	92
105	101
113	109
124	121
142	138
159	156
167	165
186	184
207	206
222	221
231	230
249	249
270	270
276	276
282	283
295	296
304	305
313	313
303	303
292	292
280	280
246	246
214	212
177	174
140	136
112	108
74	69
47	40
28	22
11	4
-11	-17
-19	-26
-26	-33
-35	-42
-41	-48
-51	-59
-48	-56
-51	-59
-53	-61
-53	-61
-51	-59
-54	-62
-57	-64
-55	-63
-53	-60
-53	-60
-53	-60
-47	-55
-51	-59
-55	-62
-52	-59
-49	-56
-50	-57
-43	-50
-49	-56
-48	-56
-40	-48
-37	-44
-34	-40
-33	-40
-31	-38
-33	-40
-39	-46
-31	-38
-35	-43
-33	-40
-28	-35
-36	-43
-34	-41
-37	-44
-42	-50
-37	-44
-41	-49
-42	-50
-46	-53
-44	-51
-43	-50
-45	-52
-47	-55
-47	-54
-47	-54
-48	-55
-55	-62
-50	-57
-47	-54
-47	-54
-55	-62
-52	-59
-51	-58
-53	-61
-52	-60
-54	-62
-48	-56
-54	-62
-55	-63
-57	-64
-51	-58
-50	-58
-52	-59
-49	-56
-49	-56
-50	-58
-48	-56
-50	-58
-52	-59
-47	-54
-49	-57
-50	-58
-47	-54
-50	-57
-53	-60
-43	-50
-39	-46
-45	-51
-52	-59
-48	-55
-42	-49
-39	-48
-48	-56
-45	-52
-39	-47
-44	-51
-44	-51
-41	-48
-37	-45
-42	-50
-47	-54
-39	-46
-36	-44
-36	-44
-40	-48
-30	-37
-34	-42
-35	-42
-42	-49
-32	-40
-32	-39
-29	-36
-21	-28
-7	-13
9	3
24	18
36	30
28	21
22	15
30	25
46	42
42	36
27	21
11	4
4	-2
-5	-11
-11	-18
-15	-22
-28	-35
-43	-50
-51	-59
-49	-56
-50	-58
-47	-54
-40	-48
-50	-58
-47	-54
-42	-49
-38	-45
-42	-50
-42	-49
-39	-46
-33	-40
-31	-38
24	21
118	115
164	163
281	284
424	428
394	396
338	333
-75	-88
-333	-348
-390	-404
-314	-325
-213	-223
-103	-110
-30	-37
-11	-18
-9	-16
-8	-14
1	-6
0	-7
8	2
12	6
23	17
28	22
21	15
23	18
28	23
37	31
36	31
38	33
43	37
49	45
59	54
56	50
56	50
64	59
67	63
71	66
81	76
90	86
99	95
100	96
114	110
126	123
137	133
142	139
163	160
178	175
188	186
193	191
217	215
243	242
262	261
266	266
284	283
295	295
303	303
316	316
327	327
324	325
320	320
310	310
300	299
265	263
232	230
196	194
166	162
126	122
95	90
64	58
45	38
32	26
21	14
-1	-7
-5	-13
-8	-16
-13	-20
-29	-36
-22	-29
-23	-30
-31	-38
-32	-39
-30	-38
-28	-36
-28	-35
-34	-42
-31	-37
-28	-35
-31	-38
-35	-42
-25	-33
-24	-32
-25	-32
-32	-40
-30	-37
-19	-25
-23	-29
-21	-29
-23	-30
-13	-20
-6	-13
-13	-20
-17	-24
-11	-18
-3	-10
-10	-17
-10	-18
-3	-10
-3	-10
-10	-16
-10	-17
-3	-10
0	-7
-3	-10
-3	-10
-14	-22
-16	-24
-19	-26
-5	-12
10	4
-9	-16
-20	-27
-17	-23
-11	-17
-10	-17
-21	-28
-16	-22
-8	-15
-15	-22
-15	-21
-15	-22
-14	-21
-23	-30
-24	-31
-12	-19
-12	-19
-18	-25
-16	-22
-4	-11
-7	-14
-12	-19
-13	-20
-5	-11
-2	-8
-9	-15
-3	-10
-8	-15
-4	-11
-5	-11
-4	-11
-7	-13
-7	-14
-7	-13
-4	-11
-11	-18
1	-5
-5	-12
-4	-10
2	-4
-2	-9
-3	-10
-1	-8
2	-4
5	-1
3	-3
1	-6
7	0
3	-3
0	-7
1	-5
9	2
13	6
8	2
18	12
25	18
42	37
55	50
69	63
79	74
68	63
74	69
86	82
89	84
78	72
64	59
55	49
38	31
34	28
25	19
13	6
-7	-14
-4	-11
-11	-19
-5	-12
-3	-10
-6	-14
-9	-16
-4	-11
0	-6
1	-5
4	-3
-1	-8
3	-3
9	2
4	-1
10	4
77	75
161	158
213	213
372	376
477	480
438	440
253	244
-158	-172
-330	-345
-333	-346
-252	-262
-132	-140
-43	-50
3	-3
25	19
38	32
51	45
56	50
55	49
60	55
70	65
79	74
79	74
71	66
81	76
88	84
85	79
85	81
90	85
97	92
101	97
104	100
118	114
117	113
107	104
124	121
128	125
133	129
141	138
149	146
161	158
164	162
169	167
183	181
194	193
208	207
220	220
232	231
244	244
266	266
279	279
288	289
303	304
311	312
316	317
323	323
333	335
343	345
333	335
328	329
320	319
301	302
265	263
237	235
209	207
174	171
145	142
118	113
97	92
76	71
51	46
42	37
45	39
38	31
17	11
16	9
16	10
9	3
7	0
2	-5
4	-3
4	-2
-1	-7
-3	-9
3	-3
4	-2
0	-6
7	1
8	2
10	4
3	-4
12	6
9	3
13	6
12	6
18	11
22	16
22	15
22	16
30	23
22	16
25	18
23	16
25	19
28	22
31	24
27	20
20	13
26	19
20	13
19	12
18	11
17	11
18	11
11	5
15	9
20	13
13	6
6	0
10	4
12	5
12	5
4	-2
8	3
10	4
5	-2
-2	-9
3	-4
4	-2
2	-4
2	-5
0	-7
4	-3
6	0
2	-4
-4	-11
-6	-12
5	-1
-8	-14
-2	-8
7	1
1	-6
-4	-10
1	-5
2	-4
2	-4
2	-5
1	-7
3	-3
1	-6
-1	-7
1	-5
1	-5
3	-3
-2	-9
3	-3
7	0
2	-5
2	-4
4	-1
4	-2
5	-2
-3	-9
4	-2
5	-1
7	0
1	-6
5	-1
6	-1
4	-3
3	-4
7	0
8	1
7	0
3	-3
8	1
19	13
25	19
32	26
55	50
72	67
74	69
59	54
63	59
81	78
85	80
61	56
52	46
44	38
31	26
19	12
15	9
19	13
-4	-11
-12	-19
-18	-26
-16	-23
-16	-23
-21	-28
-20	-26
-14	-20
-17	-24
-18	-24
-16	-22
-8	-14
-11	-18
-13	-20
-13	-19
22	17
110	107
165	162
238	241
417	421
456	457
390	393
127	116
-244	-258
-379	-394
-354	-366
-241	-251
-126	-133
-33	-39
-3	-9
3	-2
11	5
10	4
16	10
16	11
33	27
35	30
32	27
39	34
51	46
53	47
44	38
54	48
56	51
60	54
62	56
65	60
73	68
76	72
81	75
85	81
95	91
97	93
100	96
109	105
121	117
128	125
137	134
147	144
163	160
171	168
183	180
198	196
214	212
231	230
239	238
261	260
282	282
290	291
300	301
321	322
334	335
338	339
336	338
342	343
332	333
314	314
291	290
257	255
225	222
181	177
142	138
113	107
85	80
63	58
40	35
22	15
13	6
2	-5
-7	-14
-9	-15
-12	-19
-16	-23
-23	-30
-20	-27
-20	-27
-28	-35
-29	-37
-26	-35
-23	-31
-25	-32
-30	-37
-28	-36
-26	-34
-22	-30
-29	-36
-27	-34
-22	-29
-21	-28
-19	-27
-24	-31
-14	-21
-18	-25
-20	-27
-12	-18
-9	-16
-5	-13
-13	-20
-8	-15
-6	-13
-8	-15
-8	-15
-10	-17
-6	-14
-9	-16
-10	-17
-10	-17
-7	-13
-9	-17
-16	-24
-13	-20
-14	-21
-17	-24
-18	-25
-18	-25
-19	-25
-18	-25
-21	-28
-19	-27
-20	-27
-18	-25
-24	-30
-16	-22
-18	-25
-21	-27
-25	-33
-28	-35
-22	-29
-20	-26
-21	-28
-15	-22
-23	-28
-23	-30
-30	-37
-23	-30
-16	-22
-20	-27
-21	-29
-22	-29
-18	-24
-13	-20
-24	-31
-17	-24
-15	-22
-14	-21
-23	-30
-18	-25
-16	-24
-23	-31
-25	-33
-22	-29
-11	-18
-14	-22
-22	-29
-11	-19
-16	-23
-14	-22
-14	-21
-11	-19
-14	-22
-17	-25
-17	-25
-17	-25
-12	-19
-12	-20
-19	-26
-10	-17
-9	-16
-17	-24
-17	-25
-11	-18
-12	-19
-17	-25
-19	-27
-12	-20
-14	-21
-14	-21
-12	-19
-9	-17
-1	-8
14	7
15	10
41	36
57	52
62	57
46	40
48	42
65	61
67	62
53	47
41	34
37	30
22	14
4	-3
2	-5
4	-2
-13	-20
-32	-40
-37	-44
-28	-35
-33	-41
-26	-34
-23	-30
-28	-36
-29	-36
-31	-39
-29	-36
-20	-28
-23	-30
-23	-31
-16	-23
-9	-15
70	65
142	140
189	188
329	332
446	448
386	388
281	272
-147	-162
-345	-361
-370	-385
-283	-294
-177	-186
-78	-85
-18	-25
0	-6
9	2
10	3
17	10
20	14
21	15
23	17
31	25
34	29
37	32
38	32
42	36
45	40
56	51
52	45
47	41
54	48
63	58
63	59
72	66
69	64
77	73
82	77
90	86
99	95
108	104
113	110
124	120
141	138
147	144
146	143
162	159
186	184
203	201
213	211
223	222
240	240
261	261
281	281
289	290
299	300
308	309
316	317
325	326
330	331
326	326
310	311
292	293
269	268
235	235
195	192
157	153
128	124
101	96
72	67
47	41
37	31
21	14
0	-6
-9	-16
-12	-19
-11	-18
-18	-25
-25	-31
-23	-29
-22	-29
-26	-33
-28	-35
-31	-38
-29	-36
-32	-39
-30	-37
-25	-32
-22	-29
-30	-38
-34	-41
-28	-36
-21	-28
-20	-27
-23	-30
-18	-25
-20	-27
-23	-29
-15	-22
-14	-21
-16	-23
-19	-26
-14	-20
-10	-17
-1	-7
-11	-18
-16	-23
-10	-17
-7	-14
-7	-14
-10	-18
-4	-10
-8	-15
-12	-19
-15	-22
-10	-17
-9	-16
-19	-27
-13	-21
-21	-28
-19	-26
-27	-33
-19	-27
-18	-25
-18	-26
-30	-37
-27	-34
-29	-36
-23	-30
-26	-33
-24	-30
-15	-23
-13	-21
-24	-31
-26	-33
-18	-25
-17	-24
-19	-26
-17	-25
-21	-28
-19	-27
-24	-31
-26	-33
-26	-32
-19	-25
-23	-30
-21	-28
-21	-28
-27	-35
-33	-40
-31	-38
-22	-29
-21	-29
-28	-36
-34	-41
-29	-37
-30	-38
-34	-41
-27	-34
-15	-22
-20	-27
-30	-37
-30	-37
-25	-32
-25	-32
-27	-34
-32	-39
-29	-36
-18	-24
-24	-31
-28	-35
-29	-36
-24	-31
-25	-33
-23	-30
-16	-24
-7	-13
-5	-11
6	-1
29	23
46	40
44	38
28	23
40	33
60	55
52	46
30	24
31	24
27	20
12	4
0	-8
-5	-13
-14	-21
-34	-42
-45	-54
-42	-50
-43	-51
-39	-47
-41	-48
-38	-45
-38	-46
-42	-49
-40	-47
-30	-38
-37	-45
-36	-43
-32	-40
-36	-44
-26	-32
44	41
127	123
175	175
330	334
432	435
388	392
224	214
-202	-217
-387	-402
-385	-399
-288	-299
-176	-185
-86	-94
-37	-44
-12	-19
-3	-10
5	-2
10	4
18	12
18	13
24	18
31	25
30	24
40	34
37	31
40	35
39	34
50	44
49	44
52	46
66	62
70	64
64	60
69	64
74	69
80	75
87	82
92	88
97	93
109	105
108	104
120	116
134	131
145	142
148	144
162	159
181	178
193	191
200	198
212	210
237	236
250	249
260	259
269	269
283	283
291	291
292	292
292	292
305	305
292	292
276	275
261	260
237	236
212	210
179	176
143	139
113	108
86	81
60	54
44	38
28	22
14	7
-3	-9
-11	-18
-12	-18
-11	-18
-21	-27
-23	-30
-28	-35
-26	-33
-35	-43
-41	-48
-27	-35
-27	-34
-34	-42
-34	-41
-30	-36
-28	-35
-31	-39
-27	-34
-23	-30
-19	-25
-22	-29
-22	-29
-18	-26
-14	-21
-18	-25
-12	-19
-12	-18
-1	-7
-12	-19
-7	-14
-4	-11
-3	-9
-8	-15
-6	-13
-6	-14
-6	-13
-14	-21
-11	-18
-9	-16
-10	-17
-19	-26
-21	-27
-18	-24
-13	-21
-23	-30
-24	-31
-24	-31
-21	-28
-29	-36
-22	-29
-28	-35
-25	-33
-31	-39
-26	-34
-26	-34
-26	-34
-36	-44
-35	-43
-29	-36
-30	-37
-32	-39
-28	-36
-27	-34
-28	-34
-26	-33
-29	-36
-24	-31
-24	-32
-35	-42
-29	-36
-26	-33
-29	-36
-33	-41
-37	-44
-28	-35
-31	-39
-34	-42
-33	-41
-27	-34
-33	-40
-30	-37
-31	-39
-28	-36
-31	-38
-35	-43
-36	-43
-29	-36
-28	-35
-35	-43
-29	-37
-26	-33
-28	-34
-33	-41
-33	-40
-25	-33
-30	-37
-34	-42
-29	-36
-25	-33
-30	-37
-31	-38
-28	-35
-26	-33
-22	-29
-24	-30
-26	-33
-16	-24
-19	-26
-26	-34
-18	-25
-11	-18
4	-2
21	16
46	40
63	57
52	46
43	38
56	51
73	67
55	49
28	22
27	20
21	14
8	1
4	-3
3	-5
-7	-15
-25	-33
-37	-45
-30	-37
-30	-38
-30	-37
-27	-35
-27	-34
-23	-31
-20	-28
-24	-32
-17	-24
-7	-14
-9	-16
-13	-20
-6	-12
67	63
157	154
199	199
336	339
476	481
424	427
326	320
-103	-117
-332	-347
-380	-393
-287	-298
-176	-185
-50	-57
12	6
17	11
25	19
36	31
41	36
39	34
52	46
60	55
62	57
65	61
73	68
73	68
78	73
82	78
85	80
88	82
95	91
93	89
99	94
110	106
117	113
126	123
128	126
143	140
144	141
153	150
165	162
174	172
186	184
194	192
208	206
230	229
240	239
247	246
265	265
286	286
299	300
311	312
333	334
356	359
364	367
375	378
386	389
399	402
414	417
411	414
412	415
404	407
381	383
355	356
325	325
295	295
251	250
219	217
190	187
165	162
140	136
122	118
102	98
97	93
88	83
78	74
73	68
76	71
75	70
69	64
69	64
70	64
68	63
69	64
72	68
71	66
71	67
63	59
68	64
75	71
71	66
71	67
75	71
77	74
76	72
73	69
78	74
87	83
87	83
87	83
90	85
94	89
90	85
91	87
92	87
93	89
89	84
85	81
90	86
91	87
89	85
87	83
90	86
90	86
82	77
75	70
80	75
80	75
78	72
70	65
71	66
75	70
74	69
64	59
70	65
66	61
67	63
63	57
64	58
63	58
61	56
61	56
65	61
63	57
59	54
55	50
62	57
62	56
55	50
47	42
56	50
55	49
50	44
53	48
52	48
52	47
45	40
46	41
45	40
49	44
47	42
42	37
42	36
39	34
43	37
43	36
40	34
42	36
40	34
37	31
37	32
36	31
36	29
30	24
34	27
35	28
30	24
27	21
28	22
29	23
26	19
24	18
25	18
27	20
15	8
15	8
18	11
18	12
12	5
13	7
15	9
18	11
13	6
7	0
18	12
31	25
41	36
60	55
76	70
69	63
56	51
57	52
86	81
69	63
46	40
34	27
22	16
13	6
1	-5
-4	-12
-26	-34
-39	-47
-48	-57
-50	-58
-52	-60
-55	-63
-61	-68
-65	-72
-61	-68
-62	-69
-69	-77
-74	-83
-71	-79
-67	-75
-74	-82
-72	-81
-7	-12
79	74
118	115
244	246
374	376
325	324
239	229
-187	-203
-410	-427
-457	-472
-370	-383
-271	-283
-163	-173
-103	-111
-99	-107
-99	-108
-95	-103
-93	-102
-94	-102
-93	-102
-84	-92
-83	-92
-84	-93
-86	-94
-83	-91
-84	-92
-85	-93
-85	-93
-83	-91
-80	-89
-74	-82
-77	-84
-66	-73
-66	-74
-61	-68
-61	-69
-57	-65
-44	-50
-39	-47
-37	-44
-31	-38
-21	-28
-18	-23
-10	-16
8	1
25	20
29	25
35	29
56	51
75	71
86	81
94	90
115	112
122	118
127	123
139	138
153	150
161	158
157	153
149	146
144	140
122	118
92	87
59	54
20	13
-21	-28
-55	-63
-91	-99
-115	-124
-132	-142
-157	-167
-175	-186
-187	-197
-193	-205
-205	-216
-214	-225
-213	-225
-218	-229
-224	-235
-222	-233
-217	-229
-213	-225
-216	-228
-221	-233
-215	-226
-218	-229
-215	-226
-218	-229
-209	-220
-214	-225
-211	-222
-211	-222
-213	-224
-202	-213
-204	-216
-207	-218
-208	-218
-204	-215
-204	-216
-198	-209
-195	-205
-196	-207
-202	-213
-201	-212
-198	-209
-196	-207
-195	-206
-202	-211
-198	-208
-191	-201
-200	-211
-199	-210
-197	-208
-196	-208
-194	-206
-199	-210
-197	-207
-196	-207
-195	-207
-204	-215
-197	-207
-195	-206
-198	-209
-203	-215
-202	-213
-205	-216
-199	-210
-198	-209
-208	-219
-201	-212
-196	-206
-200	-210
-198	-208
-195	-207
-206	-217
-202	-213
-194	-206
-192	-202
-198	-209
-197	-208
-188	-199
-193	-203
-193	-203
-193	-204
-194	-205
-192	-203
-191	-202
-194	-205
-186	-196
-179	-189
-187	-197
-189	-200
-185	-195
-183	-194
-187	-196
-183	-193
-179	-189
-173	-183
-180	-190
-182	-192
-176	-186
-173	-183
-178	-188
-180	-190
-175	-186
-173	-183
-174	-184
-177	-188
-170	-180
-166	-177
-173	-185
-171	-182
-164	-175
-166	-176
-167	-177
-169	-179
-160	-170
-150	-160
-150	-159
-139	-148
-121	-129
-95	-104
-82	-91
-74	-83
-78	-86
-79	-87
-64	-72
-58	-66
-77	-85
-88	-96
-98	-108
-108	-117
-125	-134
-123	-131
-136	-146
-152	-162
-152	-162
-146	-156
-162	-171
-157	-166
-151	-160
-148	-158
-156	-165
-151	-161
-146	-155
-146	-156
-149	-158
-136	-146
-133	-142
-141	-150
-121	-129
-39	-44
33	28
90	89
255	257
320	320
288	288
10	-5
-363	-380
-485	-503
-463	-478
-363	-377
-247	-257
-150	-160
-114	-122
-105	-115
-106	-116
-89	-97
-77	-85
-75	-83
-77	-86
-70	-77
-53	-60
-52	-60
-57	-65
-55	-64
-48	-56
-48	-55
-46	-53
-46	-53
-33	-40
-22	-29
-19	-26
-15	-22
-9	-18
-5	-11
-3	-10
9	3
22	16
31	25
31	25
41	35
53	48
62	58
74	70
80	76
101	97
119	115
130	127
147	144
161	159
181	179
194	193
205	204
219	218
231	230
240	239
248	248
260	259
262	261
246	245
235	233
223	221
193	191
162	158
134	131
104	100
69	64
37	31
22	16
2	-5
-17	-25
-32	-38
-29	-36
-30	-37
-41	-48
-54	-61
-54	-62
-54	-62
-57	-65
-55	-62
-53	-61
-55	-62
-55	-62
-59	-66
-48	-54
-44	-52
-39	-47
-48	-55
-45	-52
-41	-48
-38	-44
-45	-53
-41	-48
-31	-38
-23	-29
-26	-32
-24	-32
-27	-33
-21	-27
-24	-30
-14	-20
-9	-15
-10	-17
-4	-11
-7	-13
-3	-8
-1	-7
-2	-8
-6	-12
-1	-8
-1	-7
-6	-13
1	-5
3	-4
-5	-12
-7	-13
-5	-12
-3	-10
-3	-10
-5	-12
-7	-13
0	-6
0	-6
-7	-15
-6	-12
5	-1
2	-5
-2	-9
6	0
4	-2
6	-2
1	-5
4	-1
11	5
14	8
8	2
7	2
12	6
18	11
5	-1
7	1
20	14
16	10
11	5
19	13
22	15
23	17
16	11
20	15
23	17
22	17
23	17
22	16
29	23
31	25
33	27
31	25
33	27
32	26
23	18
34	29
41	36
41	36
34	29
36	31
43	38
52	47
61	56
72	68
102	99
124	121
127	124
125	122
136	133
140	137
120	117
109	105
108	104
100	95
83	79
73	69
68	63
49	44
39	33
39	34
40	35
38	31
32	26
40	35
47	42
39	34
32	27
39	35
44	39
49	43
43	38
44	39
66	63
152	151
219	218
280	282
441	447
518	522
460	466
254	245
-150	-162
-302	-316
-313	-324
-206	-215
-83	-89
19	15
60	56
77	72
86	81
90	86
91	87
103	99
109	106
115	111
112	108
114	110
121	118
129	127
122	119
122	118
132	128
135	132
135	132
147	144
150	148
154	151
153	150
163	161
174	171
177	174
175	173
189	187
200	198
204	202
215	213
222	220
237	236
252	250
255	254
270	270
291	291
303	304
316	318
333	335
353	354
366	366
374	375
384	387
397	399
407	409
410	412
414	417
410	413
390	391
364	365
337	338
304	304
268	267
236	235
210	207
184	180
152	149
130	126
122	118
115	111
94	89
84	79
85	80
80	75
75	70
76	70
72	67
75	70
70	65
63	59
66	62
72	67
70	65
66	62
69	64
73	67
71	66
72	67
76	71
86	81
87	82
82	77
84	80
88	84
94	89
81	77
92	88
95	91
96	92
95	90
96	92
99	95
97	93
90	87
97	92
103	99
102	97
95	91
96	93
106	102
96	92
93	89
92	87
91	87
90	86
85	80
88	83
87	83
86	81
78	74
84	79
88	83
92	88
86	82
88	83
87	82
82	78
85	81
86	82
91	86
85	81
79	75
84	79
84	80
84	79
82	78
83	78
86	81
88	83
83	78
86	82
86	82
89	84
79	75
86	81
88	84
90	85
83	78
86	81
89	84
84	80
85	80
78	74
83	78
80	75
81	76
85	80
86	81
89	85
90	85
88	84
94	90
89	84
86	82
88	83
91	86
89	85
87	83
85	80
89	84
84	80
80	75
88	84
103	100
115	110
131	127
153	150
164	162
170	167
161	159
176	174
167	163
156	153
143	140
129	126
120	116
101	96
102	97
88	83
69	63
63	58
61	57
67	63
67	63
62	57
62	56
64	60
63	58
63	58
62	56
64	58
71	66
63	59
73	69
147	146
234	234
273	274
418	425
541	547
485	490
387	382
-47	-58
-258	-271
-293	-304
-198	-207
-100	-106
10	6
77	72
85	79
81	77
89	85
98	94
101	96
96	92
105	101
112	108
112	108
109	105
110	106
122	119
122	118
123	119
123	119
130	127
130	127
129	127
141	137
145	141
146	142
151	147
156	153
169	167
175	171
180	178
186	184
199	197
206	204
214	212
229	227
250	248
253	252
266	265
285	284
300	300
318	318
325	326
350	351
363	364
368	369
382	383
387	389
400	402
396	398
392	394
385	386
364	365
338	338
302	302
265	264
230	228
190	186
159	154
134	129
113	108
88	83
73	68
67	62
60	54
47	40
42	36
40	34
39	33
38	32
29	22
31	25
32	26
28	22
25	20
28	22
31	25
30	24
25	19
26	20
33	27
30	24
31	25
29	23
35	29
36	30
32	26
39	34
40	34
42	36
40	33
41	35
43	37
42	35
43	37
46	40
45	39
45	38
44	38
45	39
44	38
42	35
39	33
38	32
31	24
33	27
29	23
32	26
32	26
21	15
27	22
28	22
26	19
29	22
20	14
26	19
24	18
21	14
22	16
23	16
21	14
19	13
20	13
21	15
22	15
15	9
15	9
17	11
19	13
16	10
15	9
16	9
19	13
17	11
12	5
17	10
19	14
18	12
13	7
15	9
13	7
12	5
14	8
14	8
20	14
10	4
10	4
15	9
15	9
8	1
7	0
14	7
15	9
14	7
5	-1
15	9
14	7
8	1
12	6
12	5
12	6
13	6
9	2
17	11
18	12
11	4
24	19
43	38
54	49
70	65
83	79
98	94
88	83
94	89
103	99
92	88
74	69
65	60
48	42
43	37
33	27
26	19
5	-2
-7	-14
-14	-22
-13	-21
-10	-16
-12	-21
-19	-26
-19	-27
-15	-23
-12	-20
-17	-24
-15	-22
-9	-16
-4	-10
-11	-19
9	3
97	93
166	163
219	219
384	388
459	460
404	407
203	192
-201	-215
-351	-366
-338	-351
-237	-248
-133	-141
-44	-51
2	-4
13	6
14	6
13	6
18	12
25	18
25	19
27	21
34	28
39	33
40	34
43	35
50	45
48	42
49	43
52	46
62	57
61	56
62	56
64	60
81	76
85	80
88	83
96	92
106	102
112	108
118	113
124	121
140	136
147	144
153	149
166	164
181	179
202	200
217	214
229	227
242	240
260	259
275	274
291	290
310	310
319	320
321	321
332	332
335	336
342	342
333	333
323	322
303	303
269	268
233	231
198	196
169	167
133	129
100	95
70	65
51	44
39	33
23	16
15	8
8	1
3	-4
-14	-22
-18	-25
-8	-15
-9	-18
-18	-26
-21	-28
-13	-21
-12	-20
-16	-24
-17	-24
-18	-25
-15	-22
-18	-26
-15	-22
-8	-15
-13	-20
-19	-26
-20	-27
-4	-11
-3	-10
-5	-13
-9	-15
-2	-10
-3	-10
-3	-10
-2	-9
3	-4
0	-7
0	-8
-1	-8
1	-5
12	4
5	-1
3	-4
5	-2
5	-2
-1	-8
-2	-10
2	-6
-5	-12
-5	-12
-7	-14
-4	-11
-2	-9
0	-7
-3	-10
-8	-16
-11	-19
-9	-16
-4	-12
-4	-11
-3	-10
-7	-14
-7	-15
-3	-9
1	-6
-4	-12
-7	-13
-2	-9
-9	-17
-7	-14
3	-4
-5	-13
-1	-9
-1	-7
1	-6
2	-4
2	-5
-3	-10
1	-6
5	-2
2	-5
-9	-15
-10	-18
1	-5
2	-4
0	-6
-3	-9
-2	-8
-1	-8
-6	-13
3	-4
6	-1
6	-1
2	-5
0	-7
2	-4
5	-2
-4	-10
0	-6
1	-6
2	-3
-1	-8
7	0
19	14
35	30
42	37
52	48
80	75
84	80
87	82
87	83
87	80
84	79
74	69
64	59
52	46
32	26
21	13
5	-2
0	-7
-1	-9
-11	-19
-19	-26
-20	-28
-21	-28
-13	-21
-8	-15
-14	-21
-10	-17
-17	-25
-4	-11
5	-2
3	-4
-1	-7
23	19
117	115
171	169
255	257
422	427
443	445
407	406
64	51
-261	-276
-361	-376
-311	-323
-212	-222
-100	-108
-29	-36
1	-5
13	7
24	18
39	33
43	38
40	34
48	43
58	54
57	51
56	51
67	63
65	61
64	59
69	64
70	66
74	70
71	66
71	65
79	73
93	88
92	88
94	90
100	96
104	100
108	103
108	103
119	116
135	131
142	139
150	147
164	161
175	172
186	184
195	193
212	209
230	227
238	236
247	246
262	262
281	281
291	290
291	291
304	304
306	306
311	311
308	308
308	308
297	296
269	268
246	244
215	212
179	174
144	139
115	110
99	94
75	69
52	46
39	32
31	24
26	19
14	7
0	-7
-8	-17
-11	-18
-9	-15
-8	-15
-6	-12
-5	-12
-16	-23
-25	-31
-11	-19
-18	-26
-20	-27
-15	-22
-12	-18
-9	-16
-12	-18
-11	-18
-7	-14
-2	-8
-7	-13
-5	-12
2	-5
-1	-8
-2	-9
-8	-15
-3	-9
8	2
10	2
2	-4
4	-3
7	0
5	-1
-2	-9
-2	-9
2	-5
1	-6
-4	-11
-10	-16
-5	-11
-8	-15
-13	-19
-13	-19
-11	-17
-10	-16
-14	-21
-9	-17
-9	-16
-11	-19
-13	-21
-13	-20
-12	-19
-9	-16
-11	-17
-12	-19
-12	-20
-14	-22
-17	-25
-13	-20
-8	-15
-12	-19
-14	-22
-13	-20
-14	-21
-12	-20
-14	-22
-15	-22
-14	-21
-15	-22
-19	-27
-18	-25
-13	-20
-15	-22
-16	-23
-17	-24
-14	-21
-17	-24
-18	-24
-2	-8
15	9
26	21
36	31
52	47
68	63
77	72
82	77
70	64
57	51
54	49
34	29
21	15
13	7
7	0
-15	-23
-22	-29
-27	-34
-26	-34
-35	-42
-37	-44
-39	-46
-37	-45
-40	-49
-38	-45
-34	-42
-32	-40
-38	-45
-37	-45
-30	-37
-31	-38
5	-1
102	100
152	149
254	256
418	422
412	413
355	352
-14	-28
-318	-333
-420	-436
-362	-375
-242	-252
-123	-130
-54	-62
-24	-31
-17	-24
-11	-18
-1	-7
12	6
13	6
10	4
14	8
22	16
26	20
27	21
34	27
39	33
33	27
36	30
45	39
55	50
52	46
53	48
60	56
70	65
76	72
78	73
86	83
101	98
103	99
106	102
116	112
130	127
138	135
149	146
157	154
174	172
181	179
196	195
217	216
233	232
246	246
255	255
273	272
282	282
293	293
296	296
305	306
309	309
303	303
289	288
267	266
244	242
213	210
174	172
143	139
111	105
83	78
54	49
40	33
21	15
14	7
-7	-15
-17	-25
-18	-25
-29	-36
-29	-36
-36	-43
-32	-39
-34	-42
-39	-47
-38	-45
-39	-46
-43	-50
-45	-51
-42	-49
-36	-43
-35	-43
-36	-43
-31	-38
-29	-36
-34	-41
-31	-38
-24	-30
-17	-24
-19	-26
-21	-27
-17	-23
-9	-16
-15	-21
-16	-22
-15	-22
-8	-14
-11	-18
-18	-25
-13	-19
-7	-14
-15	-22
-18	-24
-14	-20
-12	-20
-19	-26
-24	-31
-17	-23
-15	-22
-18	-25
-23	-30
-22	-29
-20	-27
-23	-30
-30	-37
-25	-31
-18	-24
-25	-32
-26	-32
-22	-28
-18	-25
-24	-31
-28	-35
-26	-33
-21	-28
-25	-32
-25	-31
-18	-24
-17	-24
-22	-29
-21	-28
-21	-28
-18	-25
-25	-31
-26	-33
-25	-32
-19	-27
-22	-29
-27	-33
-23	-29
-23	-30
-27	-34
-29	-35
-25	-31
-24	-31
-32	-39
-31	-37
-28	-35
-24	-30
-21	-27
-27	-34
-29	-36
-27	-34
-29	-37
-30	-37
-22	-29
-29	-36
-22	-28
-11	-16
8	2
24	18
36	31
47	43
51	46
60	55
65	60
41	36
36	31
30	24
13	7
-1	-8
-4	-10
-7	-14
-32	-38
-49	-56
-48	-55
-47	-54
-45	-53
-49	-57
-46	-54
-39	-46
-45	-52
-46	-54
-38	-46
-38	-45
-37	-45
-44	-51
-36	-42
7	4
99	96
151	150
240	243
410	414
431	432
369	370
72	59
-280	-294
-395	-409
-350	-362
-243	-253
-130	-137
-49	-56
-17	-23
-10	-16
-3	-9
1	-5
2	-4
9	2
17	11
18	12
18	12
27	22
27	22
28	22
29	24
35	30
44	39
45	39
45	40
50	45
56	51
62	58
61	57
72	67
79	74
83	79
91	87
102	98
107	102
113	109
126	122
138	135
153	150
158	155
173	172
191	190
210	209
220	219
239	239
254	254
280	279
284	284
301	302
309	311
324	325
327	328
334	336
334	336
328	329
309	309
277	277
254	252
216	213
170	167
138	135
106	103
80	77
51	46
34	29
21	15
8	2
-4	-10
-11	-18
-16	-23
-19	-26
-31	-38
-30	-36
-26	-33
-27	-34
-25	-32
-30	-37
-23	-30
-24	-31
-28	-36
-32	-39
-29	-36
-21	-29
-27	-34
-24	-32
-19	-27
-15	-22
-25	-32
-24	-30
-15	-23
-13	-20
-14	-21
-16	-22
-14	-20
-13	-19
-8	-14
-10	-16
-7	-13
-1	-7
-5	-11
-9	-16
-4	-10
-2	-8
-9	-15
-5	-12
-3	-9
-3	-9
-9	-16
-9	-15
-5	-11
-4	-9
-9	-15
-11	-17
-6	-12
-7	-13
-11	-18
-14	-21
-10	-16
-7	-14
-18	-24
-20	-26
-15	-21
-14	-20
-18	-24
-19	-25
-13	-20
-15	-22
-18	-24
-17	-23
-14	-20
-11	-18
-11	-17
-11	-18
-15	-22
-10	-17
-11	-18
-10	-17
-4	-10
-2	-9
-4	-10
2	-5
0	-6
0	-6
-3	-9
-5	-10
2	-3
4	-2
2	-4
3	-2
5	-1
6	0
5	-1
11	5
16	9
7	1
6	0
12	6
17	12
14	7
15	8
16	9
22	16
23	17
24	18
22	16
26	20
35	29
52	48
67	63
93	89
106	102
112	107
109	105
123	119
123	119
108	103
95	91
89	84
81	77
71	65
69	65
55	49
38	31
30	24
29	24
35	30
37	31
33	29
35	30
43	38
46	41
43	37
49	43
52	47
55	49
53	47
68	65
126	124
218	217
256	256
373	379
532	538
504	508
450	449
44	32
-214	-227
-279	-291
-209	-219
-99	-105
13	8
82	77
104	100
112	108
120	117
124	120
130	127
137	135
148	146
157	154
156	152
157	155
164	162
164	162
165	161
172	170
183	181
181	179
187	186
195	193
202	200
202	201
200	199
211	210
228	227
233	233
232	231
240	239
249	248
267	267
278	278
290	291
307	308
321	322
324	326
345	346
363	365
373	376
384	387
404	407
428	432
436	440
448	452
459	464
469	474
473	477
469	474
469	474
474	478
460	464
429	430
390	392
362	363
328	328
295	294
256	255
238	237
219	217
194	191
176	172
171	169
166	162
152	148
147	144
146	142
143	139
133	129
131	128
137	132
139	135
132	127
126	122
122	119
124	120
128	125
136	133
133	130
136	132
127	123
123	120
127	123
132	129
128	126
129	127
131	128
134	131
131	129
134	131
138	136
140	136
134	131
132	129
139	135
139	136
136	133
131	128
131	128
127	125
124	120
117	114
117	113
117	113
114	110
106	102
103	99
106	102
101	97
104	100
98	93
96	92
93	89
88	83
84	80
93	88
85	80
84	80
79	75
71	67
60	55
64	61
72	67
68	63
65	60
59	54
60	54
56	51
49	44
44	39
50	44
47	42
40	35
36	31
40	34
31	26
26	20
22	16
30	24
24	18
15	8
12	6
12	6
8	1
0	-6
-5	-12
2	-4
-2	-9
-15	-22
-18	-24
-12	-18
-10	-17
-19	-27
-19	-26
-24	-30
-9	-15
-6	-12
11	4
23	17
36	30
36	30
41	36
45	39
28	22
23	16
4	-3
-9	-17
-21	-29
-35	-43
-56	-65
-75	-84
-86	-94
-97	-105
-95	-103
-98	-107
-100	-109
-107	-116
-111	-120
-110	-120
-108	-117
-117	-126
-120	-129
-120	-129
-125	-134
-133	-143
-122	-130
-43	-48
20	13
72	70
244	246
318	318
264	263
19	5
-372	-389
-520	-540
-502	-519
-417	-431
-303	-315
-228	-239
-195	-205
-178	-188
-168	-178
-163	-173
-166	-177
-178	-189
-172	-183
-168	-179
-163	-174
-169	-180
-170	-180
-163	-173
-169	-179
-168	-178
-171	-181
-166	-177
-173	-184
-179	-189
-177	-187
-175	-185
-178	-188
-174	-185
-177	-187
-175	-186
-170	-180
-172	-182
-163	-174
-161	-171
-155	-165
-154	-164
-144	-153
-136	-146
-129	-138
-121	-129
-107	-116
-91	-99
-82	-90
-80	-88
-69	-77
-57	-65
-55	-62
-52	-60
-41	-48
-36	-43
-35	-43
-43	-51
-45	-53
-57	-65
-84	-92
-117	-127
-146	-156
-175	-186
-205	-217
-241	-254
-264	-276
-288	-301
-303	-317
-320	-334
-342	-356
-350	-364
-359	-374
-363	-378
-364	-379
-372	-387
-380	-395
-389	-405
-386	-401
-391	-406
-391	-406
-394	-409
-384	-399
-386	-401
-384	-398
-392	-406
-388	-403
-386	-400
-383	-398
-388	-403
-389	-405
-387	-402
-380	-394
-384	-399
-382	-396
-380	-394
-378	-392
-379	-393
-376	-390
-378	-392
-385	-400
-389	-404
-383	-398
-382	-397
-388	-403
-390	-405
-390	-405
-387	-402
-387	-402
-389	-405
-391	-406
-389	-404
-394	-409
-397	-412
-393	-409
-394	-410
-394	-410
-396	-412
-392	-407
-395	-411
-395	-411
-400	-415
-394	-409
-392	-406
-388	-404
-386	-403
-387	-402
-388	-404
-387	-402
-392	-407
-387	-402
-381	-395
-385	-399
-392	-407
-390	-404
-381	-395
-382	-396
-388	-403
-385	-400
-382	-397
-377	-392
-379	-394
-372	-387
-370	-385
-372	-386
-375	-390
-367	-381
-363	-378
-363	-378
-364	-379
-367	-381
-361	-376
-362	-376
-357	-372
-360	-375
-354	-368
-349	-364
-353	-368
-345	-359
-339	-354
-344	-359
-344	-359
-343	-358
-334	-349
-339	-353
-337	-351
-322	-336
-302	-315
-282	-294
-266	-278
-247	-258
-238	-250
-236	-248
-224	-237
-243	-256
-246	-258
-253	-265
-271	-283
-279	-292
-281	-294
-278	-291
-303	-317
-311	-324
-317	-330
-318	-332
-318	-332
-314	-328
-313	-327
-312	-326
-318	-331
-310	-323
-303	-315
-295	-308
-294	-308
-291	-304
-284	-296
-276	-287
-192	-200
-103	-111
-47	-52
111	110
221	219
148	145
9	-6
-427	-447
-626	-647
-638	-657
-526	-543
-413	-427
-305	-317
-254	-265
-236	-247
-231	-243
-226	-238
-215	-226
-203	-214
-197	-208
-195	-206
-186	-195
-178	-188
-174	-183
-171	-181
-169	-179
-161	-170
-159	-168
-157	-166
-141	-150
-135	-144
-135	-144
-127	-135
-118	-126
-107	-116
-99	-107
-96	-104
-86	-94
-66	-73
-62	-69
-56	-64
-42	-49
-18	-25
-9	-16
3	-3
23	18
36	30
48	43
65	60
90	86
112	108
120	117
136	133
154	151
167	165
184	182
188	185
197	195
200	197
198	195
184	181
167	163
141	137
110	105
69	64
45	39
11	4
-13	-21
-41	-50
-60	-67
-73	-81
-87	-96
-93	-102
-101	-110
-104	-113
-111	-119
-115	-123
-112	-121
-109	-119
-110	-119
-109	-117
-102	-110
-97	-106
-102	-110
-96	-105
-90	-99
-86	-96
-87	-96
-86	-95
-81	-90
-74	-83
-73	-81
-72	-80
-71	-79
-63	-70
-56	-63
-53	-59
-50	-58
-39	-46
-41	-49
-40	-47
-33	-39
-25	-32
-27	-34
-27	-34
-19	-25
-18	-25
-18	-25
-14	-21
-13	-20
-7	-13
-14	-21
-13	-20
-8	-14
-5	-12
-3	-10
-4	-11
-1	-7
-3	-10
-5	-12
-4	-11
2	-5
5	-2
6	-1
4	-2
9	2
11	5
14	7
10	4
5	-1
16	10
18	12
19	12
24	18
31	25
23	17
26	20
31	26
34	29
29	24
31	26
38	33
42	37
41	36
45	40
43	37
45	40
51	45
44	39
48	43
53	47
52	47
45	40
48	43
55	50
60	54
58	53
60	56
64	59
60	55
61	56
65	62
73	69
66	62
64	60
77	73
80	75
83	78
79	75
83	79
86	82
84	80
87	83
91	86
97	92
88	83
91	87
91	87
102	99
100	97
101	98
123	120
150	148
167	164
182	180
187	184
188	185
188	185
203	201
190	188
184	181
165	162
151	148
146	143
140	137
140	136
113	109
110	106
108	104
110	105
114	110
115	111
113	109
113	108
111	107
115	111
122	118
116	113
123	119
124	120
125	122
153	152
241	242
312	314
391	397
558	566
608	614
552	559
303	295
-78	-89
-226	-238
-191	-199
-84	-89
26	23
126	123
159	156
169	166
171	169
172	169
181	179
187	185
188	186
195	194
202	200
206	204
205	202
208	206
215	213
220	218
219	217
222	220
228	226
239	237
239	238
245	244
250	250
257	258
265	265
271	271
279	279
288	288
292	292
298	299
317	318
327	328
337	339
350	351
369	371
386	388
397	400
417	420
434	437
448	451
464	467
475	479
490	494
505	510
517	522
523	528
530	536
537	542
528	533
511	515
491	494
462	466
423	425
389	390
356	356
322	322
291	291
259	258
240	238
224	222
214	212
197	195
192	191
191	189
185	183
182	180
179	177
181	178
179	177
176	174
179	177
179	177
176	174
174	171
179	177
185	182
180	177
180	178
181	179
186	184
188	186
185	185
194	192
190	189
196	194
192	191
199	197
202	201
199	198
205	203
201	200
205	204
203	200
202	200
202	200
205	202
198	196
195	193
196	194
199	197
196	194
195	193
198	196
199	196
191	189
193	192
194	193
195	193
193	191
191	189
191	189
192	190
189	187
187	185
192	191
194	193
191	189
194	193
196	195
192	191
188	187
189	187
192	191
193	191
189	187
193	191
200	199
196	194
194	194
188	186
190	189
191	190
191	190
198	197
202	200
193	191
189	187
188	188
195	193
192	191
192	190
188	186
192	191
196	194
188	186
188	186
192	191
191	189
190	188
185	183
189	187
194	192
183	180
187	185
191	189
194	193
189	187
187	185
191	190
189	187
186	184
186	184
188	186
185	183
185	182
190	188
192	191
193	191
183	180
188	186
194	193
204	202
208	207
233	232
253	253
265	265
259	258
256	256
267	268
279	279
262	261
243	242
236	235
222	221
206	204
205	203
194	191
172	169
165	162
158	155
163	160
166	163
155	151
158	155
163	161
166	165
159	157
161	159
165	163
169	166
164	161
160	158
199	199
302	304
349	351
436	443
603	612
609	614
569	572
209	200
-108	-119
-205	-215
-151	-158
-39	-44
74	71
144	141
167	164
176	175
182	179
186	184
186	184
190	188
202	201
208	207
204	202
208	207
206	205
207	205
204	203
213	212
218	217
215	214
216	215
221	220
232	231
240	238
237	236
236	235
241	241
245	243
252	251
260	259
270	270
275	275
274	274
285	286
300	301
313	314
322	323
334	336
343	345
363	366
375	378
383	386
396	400
414	418
431	435
439	444
443	447
449	453
445	449
448	453
447	451
435	438
404	407
378	380
353	354
313	313
269	268
244	243
225	224
196	194
169	166
161	158
144	141
135	132
125	121
120	116
124	120
111	107
102	98
103	99
107	103
105	100
96	92
99	95
103	100
104	100
96	92
101	97
102	98
101	96
100	95
98	95
104	100
113	108
103	98
101	96
111	107
118	115
114	110
117	113
113	109
107	103
110	106
108	104
115	112
117	113
109	104
110	106
114	110
106	102
102	98
110	106
114	111
110	105
102	97
95	90
97	92
93	89
90	85
94	90
96	92
90	85
85	80
89	84
93	87
93	89
87	83
89	86
89	84
85	81
81	77
86	82
91	86
83	79
79	75
81	76
85	81
87	83
89	84
93	88
90	86
79	74
78	73
78	74
87	82
83	79
73	69
75	71
79	76
86	83
72	68
74	70
71	68
78	74
74	70
74	69
76	72
71	66
67	63
65	61
71	67
76	71
73	67
67	63
69	64
71	67
68	64
67	63
68	63
62	56
63	59
79	74
93	88
98	94
111	107
133	129
143	139
155	152
164	161
168	165
154	152
131	128
117	115
114	109
98	95
94	89
71	67
53	47
49	43
48	42
49	43
48	43
49	44
50	44
42	36
41	35
45	41
45	40
44	39
47	42
57	51
51	46
59	56
132	130
210	208
269	271
440	446
507	511
466	470
219	210
-173	-186
-314	-327
-283	-295
-189	-197
-78	-85
8	3
49	44
71	66
66	61
77	73
88	83
91	87
82	78
93	90
101	97
107	104
106	102
109	105
111	108
109	105
108	104
116	112
125	122
127	124
121	117
122	119
128	126
139	135
135	132
145	142
158	156
162	161
164	162
172	170
183	182
189	188
202	201
207	207
220	220
235	235
240	240
250	250
270	271
284	284
294	295
308	310
315	317
321	324
329	332
336	338
341	343
336	338
331	333
324	326
311	312
284	285
250	250
222	221
188	186
162	159
132	129
115	112
94	91
77	73
64	60
51	47
49	44
37	33
28	23
29	24
29	24
26	21
22	16
20	15
27	21
31	26
25	20
25	19
27	21
26	21
25	19
26	21
37	31
34	28
31	25
34	29
41	37
37	33
36	31
38	34
46	41
44	39
39	34
44	39
47	43
43	38
41	36
43	38
46	40
39	34
36	31
36	32
40	35
35	30
33	28
33	28
31	26
28	22
26	21
25	20
35	30
26	20
24	18
25	20
27	22
27	21
24	19
24	19
25	20
25	20
22	17
25	20
29	24
23	19
25	20
23	19
29	25
24	20
16	12
19	16
31	27
30	26
24	19
23	18
22	16
20	15
19	15
23	19
26	21
25	20
25	21
24	19
21	16
23	18
20	15
29	24
33	28
33	28
26	22
29	25
31	26
31	26
31	26
33	29
37	33
38	33
34	29
29	25
36	31
34	29
33	29
48	44
62	58
76	72
92	89
107	104
119	117
121	118
125	122
142	138
125	121
113	110
96	92
80	76
76	71
64	60
60	54
35	31
32	26
25	20
25	20
27	22
29	24
27	22
23	18
23	19
30	25
26	22
31	26
36	31
40	36
32	27
60	57
154	153
223	223
291	295
464	470
523	527
460	464
188	177
-204	-218
-345	-359
-315	-326
-198	-207
-84	-90
14	9
52	48
66	62
61	57
67	63
78	73
75	70
77	73
87	82
97	93
96	93
98	95
101	97
111	107
108	105
103	100
110	107
117	114
125	123
122	119
131	128
135	133
138	135
142	140
153	151
162	161
164	162
166	165
179	179
194	192
200	198
208	208
227	228
244	244
252	253
269	270
282	283
300	302
317	319
328	331
343	345
355	357
365	368
364	367
377	381
390	393
384	386
375	378
361	363
348	350
309	310
275	275
245	245
209	208
176	174
147	144
121	118
106	102
79	75
68	65
62	58
55	50
49	45
43	37
37	32
43	38
36	31
36	31
38	32
40	35
37	31
31	26
30	25
35	30
34	29
31	27
40	36
35	30
40	35
37	33
36	31
42	37
40	35
37	32
40	35
46	41
48	44
41	36
45	41
53	48
47	43
47	41
48	43
49	43
45	40
46	41
42	36
44	40
45	39
36	31
42	37
36	31
32	28
32	27
32	26
31	26
25	19
24	20
25	19
30	25
25	20
26	20
20	15
22	18
21	15
15	10
17	11
24	18
15	9
10	4
18	13
17	12
12	7
12	6
13	7
13	6
14	8
8	2
11	5
13	6
10	4
2	-4
7	1
3	-3
3	-3
0	-6
-1	-6
1	-4
2	-4
-2	-8
1	-5
0	-5
-6	-13
-8	-15
-10	-16
-9	-15
-9	-15
-17	-23
-18	-24
-10	-16
-13	-19
-17	-23
-13	-20
-13	-19
-13	-19
-10	-17
-8	-14
-12	-18
-16	-22
-19	-25
-18	-24
-15	-22
-12	-18
-2	-8
16	11
41	37
54	49
55	50
64	60
60	56
75	70
60	55
51	46
42	36
23	17
14	8
7	1
11	4
-20	-27
-34	-41
-36	-43
-38	-45
-40	-48
-44	-52
-41	-48
-33	-40
-37	-44
-41	-49
-40	-47
-34	-42
-39	-46
-42	-48
-35	-42
-27	-32
53	50
131	128
184	184
337	342
454	458
384	387
267	260
-160	-174
-364	-380
-396	-409
-298	-309
-185	-194
-83	-90
-32	-39
-24	-30
-18	-24
-9	-15
-11	-18
0	-7
1	-5
3	-2
2	-5
4	-3
8	1
9	3
11	5
11	5
18	12
24	19
23	18
26	22
33	28
32	27
37	31
44	39
53	48
57	51
58	53
70	66
80	75
84	81
95	90
106	102
116	113
126	123
139	137
152	150
173	172
181	179
191	190
214	213
233	232
242	242
256	257
270	270
286	286
287	288
293	294
295	296
291	291
278	278
259	258
231	230
202	199
159	155
127	123
93	88
58	53
32	26
5	-1
-8	-14
-19	-27
-34	-41
-47	-55
-55	-63
-53	-61
-57	-65
-65	-73
-64	-71
-61	-68
-68	-77
-75	-82
-67	-75
-69	-77
-71	-79
-74	-81
-70	-77
-70	-78
-64	-71
-76	-83
-68	-73
-63	-70
-66	-74
-70	-77
-64	-70
-62	-69
-60	-67
-63	-69
-55	-62
-53	-58
-54	-62
-52	-60
-50	-58
-48	-55
-48	-55
-48	-55
-45	-52
-47	-54
-54	-61
-57	-64
-52	-60
-49	-57
-52	-60
-60	-67
-59	-66
-60	-67
-56	-64
-61	-69
-59	-66
-59	-65
-63	-70
-64	-72
-61	-68
-65	-73
-64	-72
-69	-77
-69	-79
-64	-72
-69	-76
-75	-83
-68	-76
-65	-72
-65	-72
-65	-73
-67	-74
-61	-69
-67	-74
-64	-71
-62	-70
-65	-72
-71	-79
-69	-77
-64	-71
-62	-69
-64	-71
-66	-74
-65	-72
-61	-69
-62	-69
-67	-75
-67	-74
-62	-69
-63	-71
-65	-72
-63	-70
-60	-67
-67	-75
-66	-73
-58	-66
-58	-66
-62	-70
-61	-67
-60	-67
-60	-67
-61	-68
-63	-69
-61	-68
-55	-63
-60	-67
-55	-62
-51	-59
-54	-63
-59	-66
-55	-63
-51	-59
-50	-59
-57	-65
-57	-65
-59	-66
-56	-64
-61	-70
-61	-68
-52	-60
-36	-43
-29	-36
-3	-10
15	9
28	22
25	19
18	12
35	30
47	41
18	10
-2	-8
-9	-16
-14	-21
-26	-34
-33	-41
-45	-53
-64	-72
-77	-85
-76	-85
-73	-81
-69	-78
-75	-84
-74	-83
-71	-79
-66	-73
-68	-76
-72	-80
-64	-72
-62	-70
-64	-72
-62	-69
-14	-19
79	75
114	111
212	213
381	384
386	386
348	344
-21	-36
-335	-351
-426	-442
-371	-384
-257	-269
-139	-148
-71	-79
-50	-57
-38	-45
-32	-39
-19	-27
-20	-27
-17	-25
-14	-22
-12	-19
-3	-9
-2	-8
1	-5
4	-2
4	-2
7	0
10	4
19	12
18	11
26	20
31	25
32	26
34	28
40	34
57	52
61	56
61	56
63	58
75	71
87	82
91	86
102	99
118	114
129	127
139	135
155	151
171	169
189	187
199	197
208	206
222	220
246	245
253	253
260	261
272	269
279	279
283	282
278	278
280	279
262	261
242	240
211	209
182	178
150	143
108	102
80	74
58	53
34	28
7	-1
-7	-14
-19	-26
-29	-36
-42	-50
-48	-56
-47	-55
-46	-54
-53	-62
-59	-66
-57	-65
-51	-59
-57	-65
-58	-66
-58	-66
-53	-62
-59	-67
-58	-66
-54	-63
-55	-63
-50	-58
-51	-60
-52	-59
-48	-55
-49	-57
-53	-60
-45	-52
-38	-45
-43	-50
-42	-50
-37	-44
-37	-44
-41	-48
-38	-45
-38	-46
-32	-39
-31	-39
-35	-43
-41	-48
-42	-50
-36	-44
-38	-47
-44	-52
-43	-51
-47	-54
-42	-50
-41	-48
-49	-57
-52	-60
-55	-62
-46	-53
-42	-50
-52	-59
-58	-65
-52	-59
-51	-58
-53	-60
-54	-61
-56	-64
-50	-58
-51	-59
-52	-60
-47	-55
-49	-56
-51	-60
-52	-60
-41	-48
-47	-55
-49	-57
-49	-57
-45	-52
-42	-50
-52	-59
-47	-54
-46	-53
-41	-50
-50	-59
-52	-60
-49	-56
-43	-51
-47	-55
-43	-51
-41	-49
-48	-55
-47	-55
-49	-57
-47	-54
-39	-47
-45	-52
-52	-60
-45	-52
-41	-48
-49	-56
-45	-52
-40	-47
-40	-48
-44	-52
-41	-48
-40	-47
-43	-50
-45	-53
-44	-51
-40	-47
-36	-42
-35	-42
-31	-38
-34	-42
-38	-45
-36	-43
-23	-30
-7	-14
12	6
17	11
39	33
52	46
57	51
62	57
58	52
46	40
30	24
23	16
16	9
5	-2
-3	-10
-27	-35
-40	-49
-46	-55
-42	-50
-43	-51
-47	-56
-50	-58
-43	-51
-45	-53
-44	-52
-44	-52
-45	-53
-38	-46
-35	-42
-35	-42
-33	-41
-10	-15
85	82
148	145
238	239
408	412
420	422
384	382
27	13
-294	-310
-390	-406
-340	-353
-231	-242
-133	-141
-61	-68
-23	-29
-8	-15
-4	-11
-6	-12
10	4
15	8
18	11
17	11
27	21
30	24
27	21
34	28
40	34
42	37
37	32
41	36
51	45
51	46
54	47
57	53
73	68
75	70
74	69
77	72
89	85
100	95
102	98
108	105
120	117
133	129
142	139
155	152
171	168
186	184
197	196
209	208
225	225
237	236
248	247
262	262
272	272
284	284
290	290
298	298
303	304
307	308
297	297
281	281
259	258
230	228
192	189
157	153
132	128
100	96
72	67
56	50
38	32
23	17
4	-2
-5	-12
-10	-17
-18	-25
-28	-35
-30	-37
-22	-29
-25	-33
-29	-36
-32	-39
-27	-34
-23	-31
-30	-37
-32	-40
-29	-36
-22	-29
-24	-32
-24	-31
-19	-25
-16	-24
-19	-26
-20	-27
-16	-24
-15	-22
-21	-28
-6	-13
-6	-13
-2	-10
-7	-13
-4	-11
0	-6
-1	-8
-5	-12
-2	-9
-2	-9
3	-4
-8	-15
-7	-14
-1	-8
-5	-12
-17	-24
-3	-9
0	-7
-6	-13
-14	-21
-15	-22
-11	-17
-10	-17
-19	-25
-11	-18
-6	-13
-7	-14
-18	-26
-17	-24
-15	-22
-13	-20
-15	-22
-18	-26
-13	-21
-14	-21
-18	-26
-14	-21
-12	-19
-9	-16
-12	-19
-11	-17
-11	-19
-21	-28
-10	-17
-8	-15
-6	-13
-6	-13
-10	-18
-9	-17
-7	-14
-5	-12
-12	-19
-10	-17
-6	-11
-5	-12
-9	-17
-8	-14
-1	-8
-3	-10
-7	-14
-11	-18
-2	-8
-2	-9
-5	-12
-1	-8
1	-5
-1	-8
-1	-6
3	-3
3	-3
6	0
3	-3
4	-3
5	-1
4	-2
1	-5
7	0
8	2
4	-2
6	1
4	-2
7	2
11	6
7	2
8	2
12	6
9	3
7	1
28	22
45	40
70	65
76	72
82	78
90	85
87	82
98	94
90	85
75	70
57	51
53	46
43	36
33	27
34	28
8	1
-6	-14
-3	-10
-4	-11
-9	-16
-9	-15
-4	-11
-7	-13
-13	-20
-11	-18
-6	-13
-3	-10
-4	-12
-7	-15
0	-6
24	19
103	101
175	172
239	240
404	409
484	486
419	422
222	212
-187	-201
-352	-368
-346	-359
-245	-256
-127	-134
-32	-38
8	2
18	12
19	13
21	15
29	23
37	32
40	35
38	32
43	37
53	47
55	49
47	42
52	46
58	53
61	56
62	56
65	61
71	66
74	69
76	70
80	75
90	86
94	90
94	90
102	98
116	112
121	117
131	127
138	135
154	151
160	157
173	170
183	181
198	195
213	211
227	226
246	245
265	265
281	281
289	289
304	305
319	320
323	324
339	340
346	347
349	350
344	345
324	324
307	306
277	276
246	244
206	204
173	169
140	136
107	103
79	73
60	54
42	36
34	27
10	3
6	-1
6	-1
-2	-8
-11	-17
-11	-17
-11	-17
-8	-15
-14	-21
-15	-21
-7	-13
-9	-14
-9	-15
-12	-18
-6	-13
-10	-17
-14	-21
-7	-13
-6	-12
-10	-17
-3	-8
-2	-8
0	-5
0	-6
2	-3
2	-4
6	0
8	2
8	2
6	0
12	6
11	5
6	0
7	0
14	7
12	5
5	-1
7	1
8	2
8	2
4	-3
0	-7
5	-1
-1	-7
-1	-8
-6	-13
2	-3
0	-6
-5	-12
-3	-9
3	-3
-11	-18
-15	-23
-4	-11
1	-6
-2	-8
-6	-13
-10	-17
-5	-11
-5	-12
-10	-16
-8	-14
-4	-10
-9	-15
-10	-16
-11	-17
-11	-17
-13	-19
-19	-25
-17	-23
-9	-15
-12	-19
-19	-26
-17	-23
-17	-23
-18	-24
-18	-25
-15	-22
-11	-17
-16	-23
-21	-28
-17	-24
-8	-14
-8	-15
-16	-23
-18	-24
-9	-16
-20	-27
-22	-28
-18	-26
-13	-19
-15	-21
-22	-29
-21	-29
-10	-16
-13	-20
-21	-28
-21	-28
-12	-19
-18	-25
-18	-24
-18	-25
-13	-19
-12	-19
-11	-19
-10	-17
-5	-12
-4	-11
-12	-19
-7	-14
-5	-12
-7	-13
-11	-18
-8	-15
0	-6
-3	-9
-4	-11
-7	-14
-4	-10
-4	-10
-5	-12
6	-1
23	18
46	40
65	61
74	69
81	77
74	70
78	73
87	81
73	68
62	56
52	46
46	42
42	35
30	23
14	6
-10	-17
-8	-16
-16	-23
-17	-25
-12	-20
-13	-19
-10	-18
-21	-29
-14	-22
-11	-18
-10	-17
-10	-17
-4	-11
-1	-9
-4	-11
29	23
115	112
179	177
252	253
416	419
457	458
418	419
112	99
-246	-261
-365	-380
-326	-339
-218	-227
-107	-114
-24	-30
10	4
16	9
12	5
26	19
26	19
31	26
33	27
37	31
41	36
47	41
48	43
48	42
52	47
63	58
63	57
63	58
72	66
74	68
76	70
80	75
84	80
90	86
91	86
100	96
110	107
120	117
124	120
127	123
136	134
152	148
160	157
174	171
187	185
201	199
215	214
233	232
249	248
264	264
278	277
292	291
307	308
314	315
319	319
327	328
332	334
342	343
335	337
326	326
313	313
279	279
244	243
207	204
176	172
144	139
110	105
86	81
68	63
50	44
29	23
27	21
25	18
17	10
6	-1
0	-7
3	-4
-3	-10
-7	-14
-10	-16
1	-5
-1	-9
-11	-18
-4	-11
-8	-14
-6	-12
-5	-12
-3	-10
-4	-11
-3	-9
-6	-12
-2	-9
1	-6
-2	-9
7	1
9	2
11	5
13	6
10	4
11	4
18	11
18	11
14	7
12	6
18	11
18	11
14	7
16	9
15	8
13	6
8	1
9	1
12	4
9	3
8	1
5	-2
7	0
1	-7
5	-1
7	0
-1	-9
1	-7
4	-3
10	3
-1	-9
-1	-9
-2	-10
-5	-12
2	-4
4	-3
2	-6
-2	-9
-2	-9
-5	-11
-6	-12
3	-3
-1	-8
-4	-11
-5	-11
0	-6
5	-1
0	-7
-7	-14
-4	-11
7	0
-1	-8
-6	-12
-6	-12
-4	-10
-5	-12
-2	-10
-2	-8
-10	-17
-13	-20
-8	-15
-2	-9
-1	-6
-4	-10
-8	-14
-4	-13
-2	-8
-3	-11
-8	-14
0	-6
2	-5
-1	-8
-1	-7
-1	-7
4	-3
7	0
-8	-15
0	-7
2	-5
-6	-13
-6	-12
2	-5
3	-4
-1	-8
-7	-13
-3	-9
1	-5
1	-5
3	-4
-2	-9
9	3
13	8
16	11
44	38
55	50
66	61
62	56
60	55
71	66
82	77
65	60
58	52
53	47
40	33
21	15
26	20
19	13
2	-5
-15	-22
-22	-29
-26	-34
-24	-31
-15	-23
-25	-32
-20	-26
-14	-22
-25	-32
-16	-23
-18	-25
-18	-25
-16	-23
-10	-18
-2	-9
50	46
141	138
175	174
299	303
444	447
405	407
329	322
-93	-107
-325	-342
-389	-404
-303	-315
-193	-202
-71	-78
-16	-22
6	-1
14	8
21	16
21	15
29	24
34	28
48	42
48	42
49	44
51	46
55	50
51	46
56	50
74	69
69	64
69	63
76	70
77	73
83	78
87	82
90	86
98	94
99	94
101	96
112	107
124	120
128	124
138	133
144	140
158	154
164	160
179	176
194	192
210	209
221	220
237	236
250	249
266	266
285	284
293	292
303	303
316	317
326	326
326	326
332	332
340	340
325	325
312	312
285	284
256	254
227	225
191	188
157	153
128	124
95	89
73	66
49	43
46	40
26	20
19	12
17	10
9	1
0	-7
-5	-12
-3	-11
-2	-10
-10	-17
-10	-18
-8	-14
-6	-14
-11	-19
-12	-19
-11	-19
2	-5
-6	-14
-6	-13
2	-4
2	-4
-4	-11
-3	-10
4	-2
3	-3
10	3
6	-1
9	2
12	6
13	7
7	0
4	-2
17	11
9	3
8	2
10	4
13	7
6	-1
4	-2
6	0
0	-6
0	-6
-8	-14
-3	-10
-5	-11
-7	-14
-12	-19
-11	-18
-5	-12
-14	-21
-12	-19
-11	-18
-19	-26
-21	-28
-16	-22
-20	-28
-18	-24
-20	-27
-17	-24
-18	-25
-19	-26
-23	-30
-21	-28
-20	-27
-19	-27
-31	-38
-29	-36
-12	-19
-18	-25
-21	-29
-22	-29
-18	-25
-18	-24
-19	-27
-26	-33
-27	-34
-23	-30
-25	-31
-23	-31
-23	-30
-21	-28
-17	-23
-23	-30
-15	-22
-16	-24
-23	-29
-23	-30
-20	-28
-15	-22
-26	-33
-22	-29
-16	-23
-20	-28
-26	-34
-27	-35
-25	-32
-22	-29
-23	-31
-25	-32
-25	-33
-25	-33
-26	-33
-29	-36
-23	-30
-21	-28
-22	-29
-29	-36
-32	-40
-19	-26
-23	-30
-24	-31
-24	-32
-20	-27
-20	-29
-26	-34
-22	-30
-21	-29
-22	-30
-24	-32
-18	-25
-5	-12
-1	-7
10	4
33	27
48	43
57	53
52	46
54	49
73	68
60	54
44	38
34	28
21	15
12	5
-4	-10
3	-4
-21	-29
-44	-52
-34	-41
-35	-43
-36	-43
-44	-52
-44	-52
-40	-47
-38	-45
-44	-52
-39	-46
-34	-41
-29	-36
-34	-41
-43	-50
-19	-25
59	55
130	127
177	177
336	340
445	447
378	380
249	240
-173	-187
-358	-374
-371	-385
-284	-295
-172	-180
-74	-80
-21	-28
-12	-19
-5	-11
-5	-12
1	-6
-2	-9
10	3
17	11
11	5
18	13
22	16
33	28
31	26
26	21
39	33
42	36
41	35
48	43
52	46
54	49
56	51
63	59
72	68
79	75
76	71
81	77
107	104
114	110
115	111
124	121
138	134
149	146
162	159
176	174
189	187
211	210
218	218
236	236
255	255
270	270
279	279
291	291
301	302
318	318
319	319
324	324
321	322
309	310
297	296
266	265
234	232
200	197
160	157
132	128
100	96
78	73
48	42
25	19
9	2
-5	-12
-20	-28
-22	-28
-26	-33
-26	-33
-27	-35
-34	-42
-36	-43
-32	-40
-42	-50
-37	-45
-29	-37
-28	-35
-33	-41
-34	-41
-28	-36
-37	-44
-35	-42
-38	-44
-18	-25
-22	-28
-29	-36
-20	-27
-16	-23
-21	-28
-18	-25
-17	-24
-11	-18
-13	-20
-18	-25
-10	-17
-10	-17
-10	-17
-6	-13
-6	-14
-3	-10
-6	-13
-9	-16
-4	-11
0	-7
-6	-14
-8	-16
-13	-21
-10	-17
7	0
-9	-16
-12	-20
-9	-16
-10	-17
-16	-23
-18	-26
-11	-18
-10	-18
-15	-23
-19	-25
-11	-17
-15	-22
-18	-26
-20	-27
-6	-13
-12	-19
-13	-20
-10	-17
-6	-14
-19	-27
-14	-22
-20	-27
-13	-21
-14	-22
-11	-18
-4	-11
-7	-14
-8	-16
-14	-21
-17	-24
-13	-19
-1	-8
-5	-12
-13	-20
-7	-15
-13	-21
-16	-23
-10	-17
-3	-9
-5	-12
-15	-22
-4	-11
-3	-10
-6	-14
-10	-17
-13	-20
-6	-12
-1	-9
-2	-9
-8	-15
-4	-11
3	-4
-8	-15
-2	-9
-4	-11
1	-6
0	-8
-5	-12
2	-5
4	-3
-6	-13
-7	-14
-5	-12
10	4
2	-5
4	-2
4	-2
6	0
2	-4
9	2
18	12
28	22
36	31
58	54
80	75
72	67
54	47
60	55
83	78
87	82
64	60
54	48
48	42
37	31
29	22
27	21
14	7
-6	-12
-12	-20
-14	-21
-4	-11
-5	-11
-8	-15
-13	-20
-8	-15
-10	-17
-16	-24
-13	-19
1	-5
6	-1
-4	-11
4	-3
36	32
130	127
171	168
253	255
424	429
442	443
406	405
50	37
-269	-284
-361	-376
-317	-329
-211	-219
-86	-93
-20	-26
4	-3
8	2
26	20
32	26
31	25
36	30
40	34
48	42
54	49
47	42
57	52
59	53
60	54
62	56
63	59
75	70
73	68
76	72
86	82
90	85
88	83
91	87
98	94
114	110
111	107
113	110
124	121
140	138
144	140
144	142
157	155
178	176
181	178
195	194
215	215
235	235
242	241
254	254
267	268
282	283
293	294
305	306
310	310
313	315
321	322
328	328
319	319
304	304
280	280
268	267
232	230
199	196
159	156
127	124
99	94
87	82
52	47
34	29
27	21
12	6
2	-5
5	-2
-3	-10
-16	-22
-23	-30
-15	-22
-20	-27
-11	-19
-20	-27
-22	-29
-17	-25
-26	-33
-21	-27
-20	-27
-14	-20
-18	-26
-22	-29
-20	-27
-17	-23
-3	-10
-21	-28
-11	-17
-16	-23
2	-5
-7	-14
-4	-11
-3	-10
-8	-14
6	-1
-3	-9
8	1
5	-1
-2	-9
-4	-10
0	-5
4	-2
-2	-9
-6	-12
-7	-13
-6	-12
-8	-14
-1	-7
-4	-10
-6	-12
-15	-22
-13	-19
-3	-10
-8	-14
-16	-23
-24	-31
-9	-16
-6	-12
-14	-19
-20	-27
-12	-19
-4	-11
-14	-20
-9	-16
-8	-15
-18	-24
-10	-16
-10	-17
-9	-15
-6	-11
-8	-15
-9	-16
-10	-16
-2	-8
-9	-15
-9	-15
-5	-11
-9	-16
-15	-22
-8	-16
-11	-19
-6	-12
-10	-17
-10	-16
-5	-11
-10	-16
-11	-18
-17	-23
-7	-13
-10	-17
-4	-10
-3	-10
-4	-11
-9	-15
-7	-13
-9	-15
-2	-9
-4	-10
-4	-10
-10	-15
4	-1
0	-6
-8	-15
-5	-11
0	-5
-8	-14
-7	-12
-3	-10
1	-5
11	5
-2	-7
7	1
5	0
18	12
19	14
44	39
63	59
81	77
66	62
57	53
64	61
95	91
84	79
56	51
55	51
40	33
28	22
21	15
25	20
12	5
-17	-24
-14	-20
-12	-17
-9	-15
-19	-25
-12	-17
-11	-18
-15	-20
-11	-17
-15	-21
-15	-21
-10	-16
-12	-18
-11	-18
-3	-9
43	41
122	119
178	178
279	283
429	434
413	414
376	374
-4	-17
-291	-306
-376	-390
-320	-331
-209	-217
-97	-103
-32	-37
-1	-6
7	1
20	15
22	17
25	20
36	31
43	38
40	35
38	33
51	48
44	39
55	50
56	52
63	58
54	49
54	50
68	64
72	68
81	77
74	68
79	76
93	90
96	93
104	100
97	93
110	107
134	131
137	134
140	138
153	150
161	158
168	165
188	186
202	200
213	212
222	221
237	236
256	255
262	262
272	273
293	294
305	307
310	312
323	325
327	328
323	325
319	319
298	298
279	280
248	248
219	217
174	172
147	143
117	113
86	83
54	49
29	24
27	22
23	18
8	2
-6	-12
-8	-14
-10	-17
-20	-27
-28	-35
-29	-35
-27	-33
-28	-35
-43	-49
-24	-31
-34	-41
-34	-40
-38	-44
-27	-34
-21	-27
-23	-30
-20	-25
-23	-30
-26	-32
-15	-22
-23	-30
-13	-20
-29	-36
-19	-26
-20	-27
-29	-34
-1	-8
-8	-15
-10	-16
-6	-13
-10	-16
-8	-14
-6	-13
-12	-19
-8	-14
-27	-33
-17	-24
-19	-26
-22	-28
-15	-21
-11	-17
-18	-25
-16	-23
-23	-29
-28	-35
-20	-27
-24	-31
-29	-35
-24	-31
-21	-27
-33	-41
-41	-49
-22	-28
-23	-30
-27	-35
-37	-44
-38	-45
-32	-39
-21	-30
-33	-40
-34	-41
-26	-32
-28	-34
-36	-43
-38	-45
-36	-43
-36	-42
-26	-33
-28	-35
-26	-33
-31	-38
-30	-37
-33	-40
-24	-31
-31	-38
-36	-43
-35	-42
-35	-42
-28	-35
-42	-50
-25	-31
-24	-31
-39	-45
-41	-48
-42	-48
-28	-35
-29	-36
-37	-44
-36	-42
-29	-35
-41	-49
-35	-41
-34	-41
-46	-52
-16	-23
-35	-43
-35	-42
-39	-46
-28	-36
-38	-45
-38	-45
-33	-40
-39	-45
-31	-38
-33	-40
-23	-29
-31	-38
-30	-37
-40	-46
-40	-46
-28	-35
-25	-31
-25	-32
-27	-32
-22	-28
-15	-21
-10	-15
9	3
43	38
41	36
33	29
24	19
29	24
41	36
46	40
28	22
14	7
-10	-16
-9	-16
0	-7
-25	-31
-14	-21
-50	-57
-55	-64
-58	-65
-45	-53
-48	-56
-51	-58
-41	-48
-50	-58
-59	-67
-57	-64
-46	-54
-55	-62
-38	-45
-33	-41
-47	-54
-15	-20
90	87
131	129
228	230
378	382
385	384
335	334
9	-4
-305	-321
-402	-418
-340	-353
-234	-243
-140	-148
-55	-62
-15	-22
-29	-35
-13	-19
-10	-17
-6	-12
-10	-17
-5	-11
0	-6
-4	-10
4	-3
17	11
18	12
22	17
27	21
21	16
22	17
37	32
39	33
36	31
42	37
46	42
57	51
52	47
64	59
76	71
77	72
73	67
96	92
127	123
114	111
120	117
130	127
153	151
171	168
187	185
206	205
216	215
222	221
226	226
258	257
267	267
275	274
284	283
295	295
314	315
299	299
295	296
285	284
268	268
234	231
201	199
170	168
132	128
91	86
72	66
38	32
17	10
-8	-14
-19	-26
-26	-34
-23	-31
-50	-58
-42	-49
-43	-50
-46	-54
-59	-67
-64	-72
-62	-69
-58	-65
-57	-65
-51	-59
-52	-59
-58	-66
-63	-70
-67	-75
-51	-60
-50	-58
-63	-70
-46	-54
-51	-58
-44	-51
-50	-57
-49	-57
-53	-59
-23	-30
-30	-37
-31	-38
-41	-48
-25	-31
-29	-37
-39	-46
-23	-30
-19	-25
-24	-32
-24	-30
-31	-37
-25	-33
-36	-44
-38	-46
-41	-48
-24	-31
-29	-37
-33	-40
-35	-42
-39	-45
-39	-47
-49	-56
-27	-34
-33	-41
-51	-59
-42	-50
-41	-49
-37	-45
-41	-49
-50	-59
-44	-52
-39	-46
-50	-58
-50	-57
-30	-37
-37	-44
-45	-52
-42	-50
-49	-57
-47	-54
-43	-51
-48	-54
-45	-52
-33	-40
-37	-45
-50	-57
-38	-46
-34	-42
-39	-47
-50	-57
-49	-55
-33	-40
-44	-52
-46	-53
-40	-48
-39	-47
-53	-60
-43	-51
-36	-43
-44	-50
-30	-38
-47	-55
-47	-53
-30	-36
-23	-30
-38	-46
-39	-47
-37	-43
-31	-38
-40	-48
-45	-53
-33	-40
-48	-56
-47	-54
-34	-42
-40	-48
-41	-48
-40	-48
-42	-49
-29	-35
-26	-33
-30	-37
-29	-37
-34	-41
-36	-43
-44	-51
-31	-38
-21	-29
-22	-27
-10	-17
2	-3
39	35
42	37
22	15
15	10
39	34
41	35
22	16
13	7
9	3
-18	-25
-22	-29
-26	-34
-22	-29
-52	-60
-74	-82
-54	-61
-40	-48
-58	-65
-62	-69
-50	-57
-56	-64
-61	-67
-53	-60
-49	-56
-51	-58
-53	-60
-48	-55
-61	-67
-42	-48
54	51
123	121
169	170
320	325
414	417
365	368
188	177
-217	-230
-376	-391
-377	-389
-280	-291
-182	-190
-82	-89
-44	-51
-19	-25
-16	-22
-20	-26
-16	-22
-17	-23
0	-5
9	2
3	-3
17	13
26	21
15	10
18	13
11	5
17	11
22	16
35	30
42	36
47	42
49	45
49	44
48	44
56	53
81	77
73	69
83	80
105	101
85	81
100	95
104	100
124	121
130	127
146	144
169	166
174	174
202	201
211	210
225	225
247	247
261	261
265	265
282	283
298	299
298	300
303	303
309	310
312	313
293	293
270	269
245	243
218	216
195	192
153	149
119	115
76	71
61	56
41	36
23	17
10	4
-2	-8
-23	-30
-25	-31
-25	-32
-38	-46
-42	-50
-34	-41
-37	-44
-42	-50
-49	-57
-47	-53
-25	-31
-24	-31
-35	-41
-21	-28
-18	-26
-27	-34
-24	-32
-25	-31
-27	-34
-25	-32
-20	-27
-20	-26
-31	-38
-24	-31
-23	-30
-26	-33
-10	-16
-27	-34
-24	-31
-13	-19
-5	-11
-21	-28
-7	-12
-10	-16
-7	-13
-26	-32
-15	-21
-16	-22
-4	-10
-10	-16
-12	-18
-15	-21
-27	-34
-17	-24
-19	-25
-11	-19
-12	-19
-19	-27
-29	-35
-11	-18
-13	-20
-33	-41
-27	-34
-11	-18
-14	-21
-28	-34
-30	-36
-20	-26
-20	-27
-34	-42
-16	-24
-11	-17
-12	-18
-22	-29
-29	-35
-15	-22
-19	-26
-21	-29
-18	-24
-21	-27
-17	-23
-17	-24
-27	-34
-23	-30
-12	-18
-6	-13
-17	-25
-19	-25
-5	-11
-7	-15
-22	-30
3	-4
-14	-20
-7	-13
-14	-21
-10	-16
-1	-6
-12	-19
-11	-18
-10	-16
-7	-13
-18	-25
-11	-17
-3	-9
6	0
1	-6
-13	-19
-2	-9
-4	-10
-5	-12
-2	-9
0	-7
-11	-17
9	2
-1	-8
-15	-22
-3	-9
-2	-8
-5	-11
11	4
3	-3
24	19
12	7
32	26
54	49
61	57
84	79
63	58
59	54
55	51
78	73
76	70
68	63
52	46
27	21
28	23
27	20
10	3
-20	-28
-17	-24
1	-5
-10	-16
-19	-26
-8	-15
-16	-22
-26	-33
-15	-22
-11	-17
-16	-22
-3	-11
-17	-23
-8	-15
-19	-26
-32	-40
17	12
127	125
163	161
272	274
438	441
413	415
355	351
-31	-44
-297	-312
-348	-362
-293	-304
-188	-197
-83	-90
-41	-48
10	4
15	9
27	22
34	29
29	23
28	22
56	51
51	46
56	52
61	55
52	46
65	60
61	56
63	59
78	73
82	77
85	80
84	81
84	79
86	82
100	97
101	97
115	111
112	108
127	124
118	114
122	119
140	137
160	158
150	147
174	172
187	184
189	188
201	200
207	206
237	237
256	256
258	258
274	274
278	278
290	291
313	314
313	313
322	324
323	324
325	325
316	316
302	302
286	286
247	246
227	227
218	216
188	186
144	141
113	108
107	102
79	75
50	46
38	33
37	31
18	12
20	14
22	17
4	-1
12	5
12	5
11	5
25	20
16	10
12	7
6	1
16	11
16	10
4	-2
3	-2
23	18
17	11
17	11
15	9
25	20
42	38
30	25
33	27
29	25
43	38
22	17
33	27
37	32
45	40
33	28
30	24
34	28
31	24
42	37
37	31
27	21
37	32
38	32
32	26
33	27
35	30
29	24
31	26
27	22
20	16
23	18
14	9
33	28
23	16
29	25
32	27
33	28
20	15
30	24
20	16
31	26
23	18
26	19
32	26
21	16
30	25
23	18
32	27
42	37
20	15
23	18
41	35
38	32
27	22
28	24
29	23
32	27
37	31
16	11
37	32
29	24
37	32
33	29
40	35
31	26
45	40
26	19
27	22
40	34
23	18
35	29
37	31
30	25
42	37
25	19
36	31
47	42
50	44
29	24
38	33
36	30
46	41
40	35
47	41
37	31
41	36
34	28
20	15
44	39
63	58
63	58
84	79
97	93
111	107
109	106
98	94
113	109
121	117
127	123
102	97
91	86
76	71
62	57
54	49
66	61
61	56
22	16
27	21
27	22
18	12
6	0
14	8
28	22
25	19
22	16
9	2
27	21
24	17
24	18
40	34
25	19
28	23
106	104
186	184
239	240
370	376
501	505
431	435
334	327
-90	-104
-294	-308
-340	-353
-235	-246
-122	-129
-17	-23
27	22
34	29
47	41
44	39
54	50
60	55
71	66
68	63
64	59
68	63
79	74
91	87
79	75
88	83
90	86
97	93
93	88
100	95
103	99
100	97
111	107
110	106
110	106
122	119
145	142
146	143
148	145
151	148
167	163
167	165
188	186
189	187
195	193
218	217
237	236
253	251
256	256
281	281
285	285
305	305
317	317
329	332
363	364
363	365
348	350
378	379
368	370
354	355
334	335
308	308
279	277
238	236
195	193
165	162
139	135
97	92
83	78
66	60
58	52
35	28
27	20
26	19
22	14
7	0
8	1
0	-6
-6	-13
-11	-19
-18	-26
10	3
-6	-13
-6	-12
-11	-18
-9	-17
2	-4
-19	-26
0	-7
11	5
2	-5
-7	-13
0	-6
3	-5
-6	-12
12	5
13	6
7	1
2	-4
-1	-8
5	-1
11	5
6	-1
11	4
25	19
27	21
16	10
2	-5
9	2
11	5
16	9
9	2
9	3
9	2
8	2
0	-7
6	0
-8	-15
15	8
-7	-14
10	4
-1	-8
1	-5
-3	-9
-10	-17
5	-1
3	-4
-8	-15
-4	-11
-5	-12
-4	-11
-14	-21
-14	-20
-7	-14
-9	-16
-11	-18
-6	-13
-1	-8
4	-2
2	-4
-5	-12
-6	-14
3	-4
-2	-9
-4	-10
2	-5
-7	-15
-13	-20
-12	-19
1	-5
-4	-12
-22	-29
-8	-15
-1	-8
2	-4
-3	-10
-14	-21
-10	-16
-1	-7
-14	-22
-13	-21
-6	-12
-4	-11
-11	-19
-17	-24
-5	-13
-15	-22
-8	-15
-17	-25
-24	-32
-3	-10
-4	-11
-12	-19
-5	-12
-8	-15
-1	-8
-9	-17
-18	-25
-7	-13
-12	-20
-16	-24
-19	-26
-9	-16
-20	-27
-18	-25
-12	-19
-5	-12
-11	-18
-17	-23
-9	-15
-11	-17
-17	-23
-10	-16
-9	-16
7	1
17	10
32	27
52	47
63	58
39	32
38	32
48	43
55	49
38	32
48	42
30	24
10	4
-3	-9
-19	-25
-5	-11
-12	-20
-44	-51
-44	-51
-42	-49
-40	-48
-50	-58
-52	-60
-59	-66
-40	-47
-32	-40
-42	-50
-41	-49
-44	-52
-41	-49
-47	-55
-36	-43
22	17
95	91
140	139
276	279
411	415
365	365
309	303
-82	-96
-332	-348
-409	-425
-312	-324
-213	-223
-104	-113
-61	-68
-38	-46
-32	-40
-24	-30
-26	-32
-22	-28
-14	-21
-16	-23
-15	-21
20	13
4	-2
11	4
-1	-7
-2	-8
22	16
19	13
17	11
18	12
25	20
31	25
21	15
31	25
31	26
42	36
44	37
49	43
69	64
75	71
79	73
85	80
94	90
104	100
109	107
140	137
147	144
158	156
172	170
191	189
204	203
218	217
229	229
244	243
260	260
270	270
263	263
282	282
285	284
271	270
262	260
238	236
209	206
172	170
142	138
99	95
63	59
41	35
9	3
-1	-7
-24	-32
-49	-57
-60	-67
-75	-83
-71	-78
-70	-78
-76	-84
-76	-83
-73	-81
-81	-90
-100	-108
-88	-96
-88	-96
-73	-81
-82	-91
-83	-91
-78	-86
-78	-88
-86	-96
-86	-95
-75	-85
-80	-88
-75	-84
-70	-78
-68	-76
-65	-74
-67	-75
-68	-76
-61	-68
-68	-76
-68	-75
-55	-63
-61	-68
-55	-62
-57	-65
-70	-78
-54	-61
-50	-57
-76	-84
-53	-61
-58	-65
-68	-76
-65	-72
-58	-65
-61	-69
-64	-72
-67	-76
-73	-82
-68	-77
-71	-78
-67	-75
-70	-79
-60	-67
-73	-82
-77	-85
-65	-71
-66	-73
-53	-61
-62	-69
-65	-72
-65	-73
-68	-75
-72	-80
-63	-70
-72	-80
-64	-72
-78	-87
-71	-80
-69	-76
-57	-65
-77	-85
-76	-83
-44	-52
-65	-73
-62	-70
-69	-78
-65	-73
-72	-80
-65	-73
-73	-81
-61	-68
-64	-72
-67	-75
-65	-73
-77	-85
-73	-80
-58	-65
-47	-54
-43	-51
-62	-69
-70	-77
-59	-66
-65	-72
-54	-63
-62	-71
-66	-74
-67	-75
-59	-67
-70	-78
-64	-72
-56	-64
-60	-68
-59	-67
-52	-60
-51	-59
-49	-57
-52	-60
-51	-59
-55	-63
-60	-68
-56	-64
-62	-69
-63	-69
-62	-69
-50	-58
-45	-52
-63	-70
-57	-65
-48	-54
-37	-44
-36	-44
-10	-16
3	-2
21	15
12	6
4	-2
3	-3
22	17
18	12
14	8
4	-2
-18	-25
-26	-33
-31	-38
-34	-42
-40	-48
-57	-65
-66	-74
-65	-72
-69	-76
-65	-73
-73	-81
-82	-90
-68	-77
-59	-65
-53	-61
-67	-75
-61	-68
-62	-69
-46	-54
-64	-71
-42	-49
52	48
114	111
166	166
318	321
399	401
350	353
154	142
-256	-271
-399	-415
-372	-385
-270	-281
-178	-185
-82	-88
-47	-54
-38	-44
-25	-32
-17	-22
-8	-15
-7	-13
-5	-11
2	-3
16	11
9	3
13	8
27	22
22	16
24	18
24	20
28	22
25	20
31	26
41	37
52	47
47	43
50	45
59	55
81	78
68	64
84	79
84	79
87	83
111	108
116	112
128	125
142	139
153	152
163	161
174	171
194	193
202	201
226	226
256	255
266	265
265	265
275	274
288	288
294	293
304	304
315	315
308	308
301	301
277	277
254	253
229	227
191	189
174	170
138	133
100	96
70	66
52	46
21	15
3	-5
-1	-8
0	-6
-29	-36
-26	-33
-8	-15
-36	-44
-50	-57
-15	-21
-24	-32
-21	-28
-30	-37
-42	-49
-32	-38
-38	-46
-39	-46
-40	-47
-25	-32
-21	-29
-38	-45
-27	-34
-19	-27
-26	-33
-38	-45
-20	-26
-12	-18
-13	-19
-13	-20
-14	-20
-3	-10
-14	-20
-10	-17
-9	-16
-5	-11
-9	-15
-14	-21
-22	-29
-7	-13
-4	-12
-13	-19
-13	-20
1	-5
-3	-10
-16	-23
-25	-32
-19	-26
-15	-24
-20	-26
-13	-20
-9	-16
-14	-21
-25	-32
-11	-18
-8	-15
-13	-19
-22	-29
-18	-26
-17	-24
-12	-19
-19	-26
-33	-40
-19	-25
-17	-23
-25	-31
-16	-24
-11	-18
-23	-31
-22	-29
-22	-30
-22	-29
-10	-17
-15	-21
-29	-35
-19	-24
-13	-21
-26	-34
-24	-31
-10	-18
-12	-18
-20	-27
-11	-19
-11	-18
-18	-24
-30	-37
-25	-32
-7	-13
-28	-36
-20	-27
-23	-29
-15	-22
-25	-33
-24	-30
-14	-21
2	-4
1	-6
-18	-24
-9	-16
-2	-9
-10	-17
-29	-37
-21	-29
-14	-22
-7	-15
-11	-18
-12	-20
-8	-15
-12	-18
3	-3
0	-7
30	25
47	42
55	50
58	52
50	44
46	40
50	43
51	47
57	51
48	42
32	27
20	13
-3	-8
26	20
5	-3
-26	-34
-28	-36
-24	-33
-45	-52
-34	-41
-31	-37
-37	-45
-42	-49
-39	-47
-18	-25
-34	-41
-23	-29
-13	-21
-24	-32
-24	-31
-21	-28
31	28
119	116
157	155
276	279
406	409
386	387
331	324
-99	-113
-322	-338
-388	-403
-318	-329
-187	-196
-85	-92
-30	-36
-4	-12
5	-2
1	-5
26	19
18	12
18	12
22	17
50	44
50	45
52	45
48	43
39	34
56	52
53	48
55	49
59	54
70	64
65	60
76	70
67	62
79	74
83	78
97	93
95	92
102	98
111	108
123	118
130	127
125	122
145	142
161	159
166	163
171	168
187	185
216	214
225	224
241	241
253	253
270	269
277	277
287	288
297	299
312	313
324	324
308	310
319	320
309	311
308	307
267	266
261	259
211	209
199	196
155	151
119	115
88	83
67	62
43	38
32	28
31	25
10	4
11	5
-9	-16
1	-5
-10	-16
-16	-23
-10	-16
-11	-18
-14	-21
-14	-21
-22	-28
-18	-24
-25	-32
-22	-29
-9	-15
-9	-16
-23	-30
7	1
-7	-15
-4	-11
-5	-12
-7	-14
-8	-14
5	-1
-1	-7
8	2
-11	-17
-7	-14
16	10
11	4
8	1
0	-6
5	0
11	4
-5	-11
4	-3
12	6
3	-3
1	-4
-3	-10
12	4
-2	-9
-6	-12
-2	-8
-14	-20
-3	-10
-10	-16
1	-5
-3	-8
-5	-12
-19	-25
-8	-14
-3	-9
3	-3
-6	-13
-6	-12
-12	-18
-1	-6
-14	-21
0	-6
-1	-8
-13	-20
11	4
-1	-7
-4	-10
-11	-18
-6	-13
-10	-17
1	-5
4	-2
-2	-8
1	-5
-5	-11
0	-6
-3	-8
-3	-9
4	-2
7	1
-3	-9
5	0
5	0
1	-6
-3	-9
-4	-11
-6	-12
11	5
3	-2
4	-2
2	-5
-5	-11
16	11
11	5
15	10
6	0
6	0
3	-3
12	7
11	6
4	-2
11	5
16	10
-5	-11
11	6
14	9
12	7
6	0
11	5
11	5
23	18
16	11
21	16
27	23
24	19
18	12
21	15
32	27
43	39
51	46
60	56
80	76
99	95
105	102
95	90
85	81
106	103
109	105
80	75
84	79
78	72
59	53
48	43
43	38
45	39
37	31
10	4
8	1
4	-1
29	24
25	19
13	7
26	21
13	7
18	12
23	18
17	11
22	17
24	19
31	25
57	54
142	140
194	192
272	275
433	438
487	490
438	441
177	166
-190	-202
-321	-335
-302	-313
-188	-196
-79	-85
8	3
44	39
53	49
54	49
54	49
60	56
73	69
76	71
79	74
76	73
79	75
98	94
102	98
94	90
97	94
108	105
105	101
101	97
105	101
130	127
121	117
124	120
121	118
142	140
144	141
146	143
154	152
157	155
172	170
180	178
206	204
200	199
214	214
232	231
247	247
258	258
258	258
282	283
305	306
334	335
327	328
355	357
362	364
372	374
370	372
384	387
397	399
387	389
376	377
352	353
338	338
294	294
262	262
220	217
179	176
176	173
135	130
104	99
87	83
83	78
60	55
46	40
47	42
42	37
36	30
31	26
30	24
23	17
23	17
32	27
27	21
33	29
34	28
29	24
33	28
26	20
30	25
29	24
34	28
46	40
30	24
32	26
32	27
43	38
35	30
32	26
36	32
45	40
43	37
40	36
61	55
38	33
35	31
49	44
45	40
39	33
40	35
47	41
42	36
46	40
43	36
35	29
36	30
27	20
20	15
48	42
41	35
40	34
27	20
25	20
38	32
28	22
26	20
17	11
21	16
27	20
22	16
17	11
21	15
23	18
17	10
22	15
21	16
27	21
13	7
15	10
21	15
23	17
18	11
12	6
25	19
18	11
17	10
23	16
17	11
29	23
20	13
13	7
27	21
29	24
20	14
16	11
21	15
17	11
13	6
19	13
27	21
10	5
33	28
17	12
16	10
24	18
20	14
16	10
15	10
23	17
14	8
24	18
17	12
22	16
12	6
18	13
21	15
30	24
13	7
18	12
13	8
24	18
16	10
23	17
17	11
17	12
24	18
24	18
30	24
31	25
47	41
71	67
86	82
85	80
85	81
72	68
91	87
94	89
75	70
70	65
57	52
54	49
33	27
34	28
31	25
16	9
0	-7
-1	-8
-5	-11
3	-4
-9	-16
-13	-20
-13	-19
3	-4
1	-6
5	-1
-6	-13
3	-2
8	2
6	0
16	12
102	99
165	163
207	206
353	357
464	468
400	403
283	275
-142	-155
-319	-333
-343	-357
-255	-266
-145	-153
-44	-51
12	5
20	14
7	1
46	41
44	38
38	32
41	36
46	40
51	46
51	45
45	39
60	55
57	52
56	51
58	53
73	68
60	55
63	58
65	61
91	87
81	76
81	77
98	93
103	99
111	106
113	109
124	120
128	125
134	130
148	146
157	154
153	151
188	186
189	188
203	202
223	222
230	230
244	244
262	262
280	280
305	306
316	317
319	320
327	329
336	337
334	335
343	344
332	332
303	303
292	292
257	256
224	223
183	181
152	148
108	103
80	75
76	70
46	40
37	32
15	8
0	-7
-6	-14
-15	-22
-28	-34
-26	-32
-24	-30
-21	-28
-17	-25
-34	-41
-40	-48
-25	-33
-29	-36
-24	-31
-33	-41
-27	-34
-11	-19
-29	-37
-30	-37
-30	-36
-24	-30
-17	-24
-18	-25
-25	-32
-21	-28
-18	-26
-10	-18
-16	-22
-14	-21
-17	-24
-7	-13
-13	-20
-11	-18
-9	-16
-17	-23
-4	-11
-9	-16
-12	-19
-16	-23
4	-3
-12	-18
-12	-20
-15	-23
-18	-25
-20	-28
-31	-38
-16	-23
-18	-25
-18	-25
-26	-32
-23	-30
-31	-38
-17	-24
-32	-39
-40	-46
-25	-32
-23	-30
-24	-32
-36	-41
-29	-36
-21	-27
-32	-38
-37	-43
-28	-34
-35	-42
-40	-46
-30	-36
-30	-35
-36	-42
-28	-35
-33	-40
-23	-30
-37	-45
-33	-40
-26	-33
-31	-38
-21	-28
-35	-42
-34	-41
-37	-45
-28	-35
-30	-37
-31	-38
-28	-35
-28	-34
-38	-45
-34	-39
-22	-28
-36	-42
-33	-39
-40	-46
-26	-32
-19	-27
-36	-43
-30	-39
-29	-36
-29	-36
-36	-43
-36	-43
-32	-39
-32	-38
-35	-41
-27	-34
-34	-41
-37	-44
-41	-47
-33	-38
-32	-39
-25	-31
-32	-38
-1	-6
25	20
25	20
37	33
33	28
35	30
36	31
40	35
26	21
14	8
14	8
-12	-19
-15	-21
-10	-16
-24	-29
-44	-51
-41	-47
-54	-60
-50	-57
-52	-59
-58	-65
-54	-60
-46	-52
-55	-62
-53	-60
-51	-58
-45	-52
-53	-61
-48	-56
-57	-65
-55	-62
-14	-19
83	81
117	115
205	206
363	367
371	372
318	314
-58	-73
-335	-350
-423	-438
-360	-372
-246	-256
-147	-155
-83	-90
-23	-29
-24	-30
-30	-36
-19	-25
-12	-18
9	4
-2	-8
3	-2
15	10
3	-3
8	2
17	13
24	18
18	12
20	16
33	29
35	30
43	38
32	27
28	24
58	55
54	50
52	47
52	47
58	54
73	69
82	78
99	95
100	96
95	92
119	116
123	120
142	140
163	161
171	169
180	178
198	198
212	212
225	224
234	234
250	250
259	260
263	263
268	269
293	294
287	289
282	282
264	264
246	246
230	229
199	198
172	169
137	133
89	86
73	67
57	52
29	23
5	-2
-9	-16
-15	-21
-20	-26
-23	-30
-47	-53
-41	-47
-34	-41
-34	-42
-38	-45
-38	-46
-39	-46
-39	-47
-51	-57
-34	-41
-40	-47
-39	-46
-36	-43
-37	-44
-28	-35
-36	-42
-26	-32
-28	-35
-22	-28
-30	-38
-28	-34
-22	-30
-29	-35
-11	-17
-9	-17
-11	-17
-5	-11
-17	-23
-12	-18
-12	-19
-14	-20
-16	-23
-13	-20
-11	-18
-8	-13
-20	-27
-24	-31
-24	-31
-32	-38
-24	-30
-40	-46
-21	-28
-20	-27
-26	-32
-22	-29
-29	-35
-33	-39
-25	-32
-23	-30
-34	-41
-33	-39
-32	-38
-34	-41
-34	-41
-34	-42
-31	-38
-40	-47
-31	-39
-17	-24
-37	-45
-39	-45
-30	-37
-25	-31
-23	-30
-35	-41
-32	-39
-36	-42
-33	-40
-28	-34
-34	-40
-29	-35
-32	-39
-44	-51
-37	-44
-27	-33
-31	-38
-32	-40
-29	-35
-25	-32
-24	-30
-32	-39
-15	-22
-21	-28
-27	-34
-32	-40
-26	-33
-30	-36
-25	-32
-31	-38
-33	-40
-20	-26
-20	-26
-33	-39
-15	-22
-26	-32
-28	-34
-27	-33
-22	-28
-20	-25
-12	-18
-27	-33
-25	-31
-21	-27
-25	-32
-30	-37
-26	-32
-22	-28
-24	-31
-38	-44
-2	-8
-2	-9
-1	-7
-4	-10
-2	-7
39	34
52	46
60	56
49	45
42	39
54	50
63	59
50	45
25	20
32	28
38	32
7	1
-7	-13
4	-1
-3	-9
-18	-24
-22	-29
-28	-35
-37	-44
-30	-36
-29	-35
-25	-31
-36	-42
-39	-46
-30	-35
-11	-17
-18	-25
-18	-25
-24	-30
-33	-38
39	35
115	114
174	173
254	257
418	422
407	409
367	365
-5	-19
-317	-331
-392	-406
-329	-341
-213	-222
-107	-115
-32	-38
-11	-17
9	3
0	-5
5	0
17	11
25	21
19	13
25	20
41	35
41	35
33	28
35	29
40	36
43	39
48	44
58	53
46	42
68	63
71	67
62	59
64	60
77	73
77	73
83	80
97	94
101	97
96	93
107	103
121	119
128	126
144	141
153	152
163	162
179	177
181	180
217	216
225	224
243	243
247	248
273	273
271	271
301	302
301	303
304	306
317	319
323	324
311	311
310	311
280	280
258	257
230	230
193	192
155	153
113	109
99	94
62	58
36	32
26	20
5	0
-9	-15
-18	-24
-15	-21
-26	-32
-33	-39
-14	-21
-35	-42
-36	-43
-35	-41
-31	-38
-34	-41
-44	-51
-44	-50
-33	-39
-38	-45
-33	-39
-32	-38
-32	-39
-39	-46
-36	-42
-17	-23
-29	-35
-11	-18
-27	-33
-20	-27
-27	-34
-18	-25
-18	-25
-22	-28
-20	-25
-16	-22
-18	-24
-12	-17
-3	-10
-13	-19
-26	-32
-28	-35
-15	-21
-5	-12
-12	-19
-24	-30
-13	-20
-23	-30
-25	-30
-19	-26
-30	-36
-22	-29
-31	-38
-27	-33
-33	-40
-38	-45
-44	-51
-19	-26
-30	-37
-17	-24
-34	-41
-38	-45
-31	-37
-33	-40
-32	-39
-37	-44
-26	-33
-43	-50
-37	-43
-36	-43
-35	-41
-41	-48
-48	-55
-47	-54
-23	-29
-27	-34
-21	-29
-37	-43
-24	-31
-31	-38
-45	-51
-29	-36
-24	-30
-34	-41
-33	-40
-31	-38
-34	-41
-29	-36
-55	-62
-30	-36
-14	-21
-26	-33
-38	-45
-28	-35
-24	-32
-41	-48
-25	-31
-26	-33
-26	-34
-33	-40
-30	-36
-27	-33
-34	-41
-31	-38
-52	-59
-31	-36
-4	-9
-17	-23
-34	-40
-28	-34
-29	-36
-31	-37
-22	-30
-20	-26
-20	-27
-23	-30
-30	-37
-21	-27
-16	-21
-1	-6
15	10
40	36
43	38
53	48
37	32
37	32
49	44
45	40
20	14
27	22
15	9
-3	-9
-11	-18
-12	-18
-8	-15
-41	-49
-52	-61
-42	-50
-38	-45
-52	-59
-42	-48
-43	-51
-46	-53
-42	-50
-44	-51
-51	-58
-35	-43
-37	-44
-43	-50
-30	-36
-21	-28
44	40
128	126
172	172
322	326
429	432
361	364
231	222
-178	-192
-376	-392
-393	-406
-291	-302
-187	-195
-81	-87
-29	-35
-17	-23
-18	-24
-12	-18
-14	-19
6	2
9	3
7	1
8	2
9	4
25	19
31	25
23	17
23	18
30	24
17	12
39	35
56	51
50	46
46	41
50	44
45	42
79	75
69	65
76	73
88	85
100	97
102	98
109	106
115	112
133	131
134	131
139	137
178	177
187	185
198	198
207	207
226	226
254	254
261	262
274	274
280	280
300	302
311	312
324	325
320	321
323	325
315	317
298	298
269	269
246	245
218	217
183	180
142	138
98	94
86	81
53	47
32	26
22	16
-1	-7
-1	-7
-10	-16
-24	-31
-26	-33
-34	-40
-25	-33
-27	-34
-41	-48
-28	-35
-23	-30
-27	-34
-34	-41
-34	-41
-21	-28
-30	-37
-34	-40
-42	-50
-24	-30
-16	-22
-24	-30
-24	-30
-14	-21
-20	-27
-12	-19
-23	-30
-29	-35
1	-5
6	0
-4	-11
-12	-18
0	-6
-13	-19
-6	-12
-9	-15
5	-2
-10	-16
-4	-11
-2	-8
-4	-10
-14	-21
-8	-15
-10	-16
-2	-8
-16	-23
-7	-14
-9	-15
-6	-12
-20	-26
-12	-17
-14	-20
-17	-24
-18	-24
-16	-23
-20	-27
-15	-21
-18	-25
-31	-37
-20	-27
-15	-21
-12	-20
-16	-23
-20	-26
-7	-14
-12	-18
-27	-33
-31	-38
-2	-8
-16	-22
-18	-25
-12	-18
-16	-22
-17	-24
-14	-21
-18	-26
-21	-28
-18	-24
-19	-25
-5	-12
-14	-20
-17	-22
0	-6
-12	-18
-13	-19
-10	-16
-18	-25
-14	-20
-10	-15
-17	-23
-22	-28
-25	-31
-14	-21
-15	-21
-31	-38
-12	-17
-11	-17
4	-2
-16	-22
-10	-16
-12	-19
-11	-18
-21	-27
-21	-28
-19	-26
-20	-27
-25	-31
-21	-27
-14	-20
-20	-27
-8	-14
-6	-12
-18	-25
-20	-26
-10	-16
-8	-14
-7	-12
-1	-6
4	-2
16	10
40	36
57	52
50	44
37	31
44	39
46	42
64	60
40	35
30	25
18	12
5	-1
-4	-11
-8	-14
-19	-25
-22	-29
-46	-53
-49	-55
-34	-41
-41	-47
-48	-53
-44	-51
-52	-59
-49	-55
-48	-53
-34	-40
-45	-51
-46	-51
-29	-34
-31	-36
-40	-45
20	17
126	125
148	147
246	251
402	407
372	374
304	299
-109	-123
-356	-371
-395	-409
-319	-329
-218	-227
-99	-104
-45	-51
-25	-31
-28	-34
-12	-17
-13	-18
2	-4
-8	-13
4	-1
9	5
5	0
19	14
24	19
16	11
24	19
24	19
24	19
35	31
60	55
47	43
49	45
48	43
55	51
54	49
62	58
74	72
72	69
89	84
90	87
102	100
115	113
116	114
125	123
141	139
158	156
166	165
182	180
196	195
212	211
216	216
232	232
250	251
270	270
273	274
281	282
298	300
320	321
304	305
284	285
278	279
275	275
241	241
209	208
171	168
138	135
98	94
72	66
45	40
29	24
0	-6
-9	-14
-10	-17
-22	-28
-28	-35
-36	-43
-45	-52
-32	-39
-48	-55
-45	-52
-52	-59
-45	-52
-39	-46
-50	-58
-52	-59
-41	-48
-50	-57
-47	-54
-40	-47
-56	-64
-48	-54
-45	-53
-35	-43
-38	-46
-51	-58
-42	-49
-39	-47
-28	-34
-34	-40
-41	-47
-26	-33
-27	-34
-31	-37
-28	-35
-23	-29
-23	-30
-31	-38
-36	-43
-38	-44
-33	-38
-36	-41
-42	-49
-35	-42
-29	-35
-40	-48
-57	-64
-28	-35
-26	-33
-30	-37
-44	-49
-38	-44
-36	-43
-47	-54
-51	-58
-48	-55
-37	-43
-51	-58
-45	-52
-40	-47
-46	-53
-44	-51
-43	-51
-51	-58
-45	-52
-49	-56
-44	-51
-50	-58
-54	-61
-33	-39
-25	-31
-42	-48
-43	-49
-44	-50
-50	-57
-43	-48
-40	-47
-50	-57
-48	-54
-51	-58
-47	-54
-41	-47
-46	-52
-47	-53
-47	-54
-56	-62
-46	-54
-40	-48
-40	-48
-55	-63
-40	-47
-32	-38
-25	-32
-43	-49
-54	-61
-45	-51
-36	-44
-48	-55
-43	-50
-42	-49
-40	-46
-57	-64
-51	-58
-36	-42
-32	-39
-43	-50
-50	-57
-49	-56
-36	-43
-58	-65
-53	-60
-37	-43
-34	-41
-44	-51
-29	-34
-21	-27
-6	-12
3	-3
24	18
23	17
9	3
14	9
27	21
27	22
23	17
0	-6
-17	-23
-21	-28
-28	-35
-49	-56
-45	-52
-44	-52
-55	-62
-70	-78
-68	-75
-74	-81
-73	-81
-68	-75
-67	-75
-61	-67
-57	-65
-66	-73
-60	-66
-59	-66
-59	-66
-64	-72
-39	-46
9	4
89	86
132	131
258	261
407	408
350	350
253	245
-158	-173
-364	-380
-405	-420
-336	-348
-222	-232
-109	-116
-64	-71
-39	-46
-38	-46
-26	-33
-20	-26
-24	-31
-5	-11
-3	-9
-11	-18
-11	-18
9	4
12	6
15	9
13	7
20	15
18	12
25	20
29	24
25	20
32	26
46	41
41	36
43	38
46	41
62	57
59	55
74	69
66	62
75	71
114	111
101	98
124	120
134	131
130	128
146	144
159	157
173	171
181	179
180	178
222	221
226	225
228	228
240	240
251	251
256	256
256	256
244	244
251	252
257	257
239	237
201	199
170	168
145	142
103	99
74	69
46	41
34	28
1	-5
-10	-17
-22	-29
-25	-32
-53	-61
-45	-51
-42	-49
-48	-56
-61	-68
-70	-78
-61	-67
-36	-44
-51	-58
-70	-76
-61	-67
-67	-74
-60	-66
-60	-66
-54	-61
-56	-63
-60	-67
-48	-55
-43	-50
-48	-55
-51	-59
-55	-62
-38	-45
-47	-54
-49	-56
-38	-46
-29	-36
-30	-36
-30	-38
-37	-44
-43	-51
-33	-40
-46	-53
-39	-45
-43	-50
-49	-56
-37	-44
-44	-51
-46	-53
-54	-61
-51	-59
-51	-57
-40	-47
-45	-52
-53	-60
-52	-59
-47	-53
-54	-60
-68	-75
-51	-59
-50	-56
-49	-57
-53	-59
-58	-65
-60	-67
-51	-58
-67	-76
-53	-60
-37	-44
-46	-53
-54	-61
-39	-45

-52	-58
-51	-57
-46	-54
-54	-61
-43	-51
-49	-56
-48	-55
-51	-58
-53	-60
-61	-67
-49	-55
-49	-57
-47	-53
-35	-42
-46	-53
-57	-65
-40	-45
-28	-35
-43	-50
-48	-55
-42	-49
-51	-58
-37	-44
-59	-65
-45	-52
-45	-52
-51	-59
-52	-59
-29	-35
-35	-43
-39	-46
-49	-56
-47	-54
-27	-34
-42	-50
-42	-49
-30	-37
-39	-46
-46	-54
-49	-56
-36	-43
-24	-30
-33	-40
-50	-58
-37	-44
-31	-38
-48	-55
-35	-42
-25	-32
-34	-40
-40	-47
-41	-48
-41	-48
-41	-48
-40	-48
-28	-33
-17	-23
-19	-25
-9	-16
12	7
33	28
53	49
35	29
28	22
38	34
46	40
29	24
17	11
5	-1
-3	-10
-18	-24
-21	-27
-14	-19
-20	-27
-37	-44
-58	-65
-54	-61
-48	-56
-52	-60
-54	-61
-48	-56
-53	-61
-54	-60
-55	-62
-51	-57
-47	-55
-59	-66
-52	-59
-45	-51
-16	-22
61	58
134	130
185	187
352	355
421	423
343	346
124	113
-265	-280
-397	-413
-382	-394
-282	-293
-162	-170
-77	-84
-37	-43
-26	-33
-24	-30
-17	-24
-18	-24
-14	-19
-1	-8
-2	-8
10	4
14	8
10	4
-1	-7
32	26
19	14
21	16
24	18
21	15
35	29
36	31
37	32
43	39
48	44
62	58
64	60
59	55
83	79
94	90
85	81
98	95
114	110
130	127
127	125
143	141
152	150
167	165
188	187
191	190
219	219
227	227
234	234
247	248
269	270
283	284
280	280
299	300
306	306
296	297
287	288
272	272
249	249
229	228
185	183
152	149
107	102
91	87
65	61
41	36
19	14
9	5
-19	-26
-31	-37
-24	-31
-31	-38
-44	-51
-48	-54
-42	-49
-51	-58
-64	-71
-44	-51
-49	-56
-65	-72
-52	-57
-42	-48
-48	-54
-56	-63
-56	-63
-48	-55
-51	-58
-43	-51
-47	-55
-45	-53
-43	-51
-34	-40
-33	-40
-45	-52
-42	-48
-36	-43
-27	-34
-24	-31
-31	-38
-27	-34
-38	-45
-28	-35
-28	-34
-28	-35
-25	-32
-31	-38
-34	-40
-46	-53
-31	-38
-35	-43
-33	-39
-25	-31
-38	-44
-35	-41
-35	-41
-36	-43
-50	-57
-39	-46
-51	-58
-38	-44
-52	-60
-40	-48
-44	-51
-57	-64
-42	-49
-49	-56
-49	-56
-46	-53
-48	-55
-47	-54
-54	-61
-47	-54
-45	-53
-43	-51
-53	-60
-55	-61
-49	-56
-50	-57
-48	-55
-46	-54
-61	-68
-57	-64
-32	-39
-51	-58
-53	-59
-51	-59
-45	-53
-54	-62
-56	-63
-56	-64
-56	-64
-48	-55
-55	-63
-52	-59
-66	-74
-56	-63
-44	-50
-47	-54
-58	-65
-67	-73
-49	-57
-57	-64
-53	-61
-61	-68
-64	-72
-63	-69
-51	-57
-47	-55
-64	-71
-72	-80
-59	-65
-44	-51
-71	-78
-53	-60
-51	-58
-60	-68
-62	-67
-64	-71
-51	-58
-58	-65
-57	-64
-66	-73
-54	-61
-60	-67
-51	-57
-43	-49
-18	-24
-7	-13
27	21
22	17
7	1
3	-2
19	13
17	12
12	8
-13	-19
-24	-31
-32	-39
-43	-50
-36	-43
-46	-53
-64	-72
-70	-78
-79	-87
-84	-92
-66	-73
-78	-86
-68	-76
-80	-88
-83	-90
-80	-87
-84	-92
-80	-88
-66	-73
-67	-74
-72	-79
-77	-85
-17	-22
87	84
116	114
210	212
368	371
352	352
313	309
-69	-83
-343	-358
-416	-431
-360	-372
-257	-267
-150	-157
-77	-85
-54	-60
-42	-49
-36	-43
-31	-38
-36	-42
-16	-22
-21	-28
-17	-25
-14	-21
-14	-21
1	-5
-7	-14
-7	-13
-4	-10
6	1
8	2
9	3
10	4
24	19
28	23
24	19
33	28
42	37
40	35
44	39
60	55
69	64
73	68
77	74
101	97
119	115
129	127
133	131
148	146
151	149
175	174
190	188
205	205
218	217
240	240
247	246
252	252
271	272
278	279
300	300
294	293
299	300
286	287
263	262
226	224
203	200
165	161
136	132
89	83
61	56
50	45
16	10
1	-7
-25	-32
-16	-22
-23	-30
-48	-55
-53	-61
-50	-57
-48	-56
-65	-73
-71	-80
-60	-67
-66	-74
-60	-66
-62	-68
-63	-70
-47	-56
-48	-56
-54	-61
-52	-59
-55	-63
-56	-63
-58	-65
-49	-56
-58	-64
-60	-66
-49	-56
-24	-33
-49	-57
-59	-66
-23	-30
-13	-20
-24	-31
-31	-36
-22	-30
-32	-40
-37	-44
-41	-48
-38	-46
-39	-46
-31	-38
-32	-39
-38	-44
-38	-45
-25	-33
-40	-47
-25	-32
-30	-37
-28	-35
-43	-51
-40	-48
-29	-36
-46	-55
-50	-57
-43	-50
-34	-41
-33	-41
-50	-57
-41	-48
-43	-50
-25	-33
-23	-31
-30	-37
-40	-48
-36	-44
-36	-42
-28	-34
-33	-39
-37	-44
-37	-44
-33	-41
-37	-44
-18	-25
-22	-30
-36	-43
-28	-34
-10	-17
-24	-31
-21	-28
-25	-31
-21	-27
-24	-32
-29	-36
-19	-26
-21	-27
-30	-38
-22	-28
-4	-10
-20	-27
-32	-39
-25	-32
-15	-21
-11	-18
-12	-18
-22	-29
-7	-14
-20	-27
-20	-27
-14	-21
-2	-9
-16	-23
-19	-25
-1	-8
1	-6
-22	-28
-16	-22
-2	-9
-9	-15
-11	-17
-3	-9
-17	-23
-20	-28
-1	-8
-6	-12
-5	-13
-15	-22
-23	-31
-7	-13
14	8
13	7
23	19
43	38
63	58
80	74
60	55
54	49
60	55
81	76
61	56
40	34
26	20
34	28
22	16
1	-6
10	4
5	-2
-27	-33
-27	-33
-31	-38
-7	-13
-19	-26
-38	-44
-26	-32
-18	-24
-22	-29
-21	-28
-16	-22
-15	-22
-16	-23
-20	-26
-13	-19
15	13
141	139
169	168
245	248
394	397
396	397
379	377
18	5
-288	-302
-376	-390
-312	-323
-205	-214
-91	-98
-26	-32
-12	-18
3	-2
24	18
39	33
34	29
37	32
37	32
32	27
50	45
52	47
49	45
67	62
48	43
68	63
62	57
60	56
47	41
79	75
87	83
71	66
73	68
84	79
100	95
88	84
96	91
108	105
117	114
127	123
126	122
127	125
152	150
161	158
171	170
192	191
194	192
205	203
225	224
251	251
253	253
266	265
269	269
281	282
314	313
294	292
307	306
328	329
317	317
310	310
283	282
267	266
241	239
214	212
175	172
144	139
114	109
78	72
51	45
46	39
35	29
4	-3
-8	-15
24	18
15	9
-8	-15
-17	-24
-14	-21
-10	-17
3	-3
-12	-19
-13	-20
-11	-18
-16	-24
-16	-23
-16	-23
-17	-23
