-148	-64
-154	-64
-150	-66
-146	-64
-144	-68
-144	-62
-144	-58
-142	-60
-140	-60
-134	-66
-136	-68
-128	-64
-138	-64
-138	-70
-144	-64
-140	-64
-144	-64
-146	-68
-148	-66
-148	-72
-148	-72
-142	-76
-146	-76
-136	-68
-134	-68
-130	-70
-132	-62
-128	-56
-124	-62
-120	-64
-116	-66
-114	-66
-114	-70
-118	-64
-124	-70
-130	-70
-136	-66
-136	-60
-138	-70
-138	-78
-136	-88
-140	-90
-152	-86
-152	-84
-158	-76
-152	-74
-148	-66
-154	-64
-158	-58
-156	-58
-150	-58
-156	-66
-160	-62
-152	-66
-154	-62
-148	-64
-148	-62
-146	-62
-148	-72
-140	-76
-130	-76
-126	-74
-114	-76
-116	-80
-108	-74
-108	-76
-98	-72
-104	-66
-116	-60
-130	-56
-142	-50
-144	-44
-148	-52
-148	-50
-156	-50
-168	-52
-168	-52
-166	-58
-168	-58
-168	-60
-164	-64
-158	-64
-154	-68
-148	-72
-144	-70
-144	-70
-144	-64
-140	-68
-138	-64
-138	-72
-136	-66
-136	-64
-138	-64
-138	-62
-140	-62
-140	-66
-142	-66
-144	-66
-142	-70
-146	-70
-144	-66
-144	-68
-148	-70
-148	-74
-148	-66
-150	-62
-150	-70
-146	-74
-140	-74
-134	-68
-134	-70
-128	-70
-130	-72
-130	-68
-134	-64
-138	-66
-140	-64
-142	-68
-146	-68
-148	-74
-150	-74
-152	-74
-154	-70
-152	-68
-146	-58
-144	-60
-144	-56
-144	-56
-138	-56
-138	-56
-140	-56
-132	-60
-138	-58
-136	-60
-136	-60
-136	-58
-140	-62
-130	-66
-114	-72
-96	-76
-80	-80
-64	-76
-64	-78
-66	-74
-78	-76
-98	-74
-136	-58
-170	-50
-200	-50
-212	-44
-204	-46
-192	-46
-180	-44
-168	-46
-168	-50
-176	-56
-176	-50
-184	-56
-178	-54
-184	-54
-178	-60
-168	-62
-162	-64
-152	-72
-142	-66
-142	-64
-146	-52
-150	-42
-148	-36
-150	-42
-150	-54
-148	-66
-148	-72
-154	-66
-152	-58
-152	-64
-152	-56
-158	-62
-156	-60
-152	-56
-146	-62
-142	-66
-140	-62
-142	-62
-136	-60
-140	-60
-144	-56
-144	-48
-148	-52
-150	-50
-154	-50
-148	-48
-154	-48
-154	-54
-156	-52
-152	-56
-140	-62
-134	-70
-136	-72
-150	-62
-156	-68
-160	-66
-156	-68
-154	-66
-148	-66
-136	-64
-132	-62
-128	-64
-124	-60
-128	-60
-126	-66
-128	-68
-126	-70
-134	-66
-134	-64
-142	-66
-142	-68
-148	-68
-146	-68
-146	-66
-142	-70
-136	-66
-132	-64
-124	-70
-116	-66
-114	-62
-120	-62
-120	-54
-130	-46
-140	-44
-146	-64
-160	-70
-158	-70
-154	-70
-154	-68
-150	-70
-138	-70
-134	-72
-128	-70
-128	-68
-122	-70
-128	-62
-130	-62
-136	-56
-136	-54
-132	-54
-130	-48
-122	-46
-126	-40
-128	-44
-124	-42
-114	-46
-100	-52
-92	-52
-76	-48
-80	-50
-82	-56
-90	-60
-112	-60
-138	-56
-156	-54
-172	-48
-180	-46
-178	-48
-174	-50
-168	-46
-162	-42
-154	-40
-152	-42
-148	-38
-146	-42
-142	-40
-146	-44
-154	-42
-160	-44
-154	-52
-160	-52
-148	-48
-142	-48
-140	-58
-130	-66
-116	-66
-112	-66
-112	-52
-122	-44
-132	-38
-146	-32
-144	-32
-146	-34
-146	-36
-136	-36
-126	-38
-128	-42
-134	-42
-142	-42
-150	-40
-156	-54
-158	-56
-158	-62
-140	-66
-136	-74
-134	-76
-120	-78
-110	-70
-104	-64
-114	-48
-124	-42
-136	-34
-138	-36
-146	-34
-150	-32
-154	-40
-158	-42
-152	-44
-156	-50
-150	-46
-146	-50
-154	-56
-144	-62
-142	-62
-140	-56
-134	-66
-128	-58
-132	-54
-128	-46
-124	-50
-126	-48
-132	-50
-134	-44
-126	-42
-122	-46
-120	-54
-112	-54
-112	-58
-106	-64
-102	-70
-106	-70
-112	-74
-124	-72
-136	-66
-140	-70
-138	-78
-126	-64
-132	-66
-128	-54
-146	-38
-162	-40
-170	-40
-168	-42
-168	-44
-162	-38
-156	-42
-156	-48
-152	-52
-152	-50
-152	-52
-152	-48
-158	-50
-162	-60
-158	-56
-150	-44
-148	-32
-148	-38
-140	-50
-132	-52
-134	-46
-132	-42
-132	-34
-136	-32
-136	-32
-134	-36
-136	-38
-134	-42
-134	-44
-128	-44
-122	-46
-124	-50
-126	-46
-128	-48
-136	-48
-138	-52
-136	-52
-134	-48
-136	-42
-140	-38
-136	-36
-136	-36
-132	-32
-136	-30
-132	-32
-138	-36
-140	-34
-140	-36
-136	-42
-132	-50
-136	-52
-130	-58
-124	-62
-124	-64
-118	-64
-122	-60
-136	-58
-144	-52
-150	-48
-152	-38
-144	-32
-146	-38
-144	-36
-142	-34
-146	-40
-148	-40
-152	-36
-146	-36
-152	-44
-146	-48
-138	-54
-130	-60
-116	-74
-110	-72
-104	-78
-100	-78
-100	-78
-94	-72
-98	-64
-114	-54
-126	-48
-142	-42
-150	-38
-148	-38
-146	-36
-138	-36
-142	-48
-142	-44
-150	-54
-154	-54
-152	-60
-148	-70
-138	-76
-128	-80
-124	-78
-124	-80
-122	-78
-120	-78
-118	-74
-128	-62
-132	-62
-152	-46
-154	-46
-158	-42
-160	-44
-158	-42
-156	-44
-154	-44
-158	-30
-156	-48
-148	-60
-150	-72
-144	-74
-142	-76
-138	-80
-132	-74
-124	-80
-106	-78
-100	-76
-98	-64
-106	-60
-120	-58
-124	-56
-128	-58
-126	-50
-128	-50
-132	-48
-134	-44
-142	-48
-150	-54
-158	-52
-158	-52
-160	-60
-166	-66
-160	-66
-150	-70
-152	-62
-138	-60
-138	-60
-138	-58
-138	-44
-134	-44
-134	-42
-130	-42
-136	-38
-138	-42
-134	-42
-138	-40
-134	-42
-136	-44
-134	-46
-134	-48
-136	-52
-130	-58
-130	-62
-130	-60
-130	-50
-132	-46
-132	-40
-136	-36
-136	-30
-136	-26
-134	-22
-130	-22
-134	-24
-132	-24
-128	-28
-130	-30
-130	-32
-130	-38
-126	-44
-122	-52
-116	-56
-112	-52
-108	-54
-104	-44
-102	-40
-100	-46
-106	-54
-110	-48
-112	-40
-120	-28
-126	-22
-130	-24
-126	-26
-124	-28
-124	-28
-126	-34
-124	-36
-126	-46
-122	-50
-120	-58
-118	-70
-120	-68
-128	-64
-136	-56
-142	-54
-140	-50
-134	-60
-124	-56
-126	-56
-132	-46
-142	-40
-156	-40
-148	-40
-146	-44
-144	-48
-138	-50
-128	-50
-124	-48
-116	-54
-110	-56
-106	-60
-116	-64
-114	-66
-120	-54
-128	-54
-124	-46
-126	-44
-122	-38
-116	-36
-118	-32
-110	-28
-110	-28
-114	-24
-110	-26
-110	-32
-116	-30
-118	-40
-120	-46
-122	-52
-120	-54
-124	-56
-128	-48
-134	-54
-132	-48
-134	-52
-130	-48
-124	-46
-120	-42
-116	-40
-110	-40
-114	-38
-104	-38
-98	-44
-86	-42
-92	-44
-102	-48
-124	-48
-136	-54
-142	-64
-130	-64
-120	-70
-106	-68
-100	-66
-88	-58
-88	-56
-94	-66
-104	-72
-124	-66
-126	-60
-116	-52
-120	-40
-118	-32
-120	-28
-112	-28
-110	-32
-100	-38
-102	-56
-102	-60
-114	-66
-116	-70
-112	-70
-112	-64
-102	-64
-96	-64
-96	-60
-92	-62
-94	-66
-86	-64
-86	-58
-98	-48
-120	-42
-132	-36
-132	-40
-134	-44
-126	-42
-124	-46
-116	-52
-104	-60
-98	-64
-94	-70
-92	-72
-88	-74
-90	-70
-94	-66
-104	-58
-108	-52
-110	-44
-102	-40
-96	-38
-82	-40
-74	-38
-72	-40
-72	-40
-80	-40
-90	-34
-102	-32
-112	-38
-116	-50
-116	-50
-106	-58
-102	-60
-96	-66
-86	-68
-84	-62
-94	-48
-94	-34
-96	-26
-100	-36
-98	-52
-100	-58
-98	-56
-98	-46
-96	-36
-96	-36
-94	-38
-90	-42
-92	-40
-88	-44
-88	-54
-88	-58
-86	-66
-86	-66
-82	-66
-84	-62
-84	-58
-96	-58
-96	-58
-100	-58
-100	-54
-102	-50
-112	-46
-120	-42
-114	-40
-110	-48
-100	-44
-104	-54
-108	-58
-112	-58
-114	-72
-110	-68
-110	-72
-104	-68
-92	-72
-94	-72
-94	-68
-94	-64
-94	-64
-104	-54
-116	-48
-118	-46
-122	-50
-116	-50
-112	-48
-104	-48
-114	-52
-118	-52
-116	-64
-112	-70
-104	-82
-96	-92
-90	-94
-90	-86
-102	-82
-110	-72
-116	-70
-102	-66
-100	-60
-88	-54
-76	-54
-78	-54
-78	-42
-88	-42
-102	-46
-116	-48
-118	-48
-120	-58
-118	-56
-116	-60
-122	-66
-124	-72
-124	-70
-118	-78
-112	-92
-114	-90
-112	-86
-106	-84
-102	-78
-106	-70
-118	-66
-122	-62
-126	-58
-126	-58
-128	-60
-122	-62
-128	-58
-124	-68
-118	-74
-116	-72
-118	-78
-120	-80
-122	-78
-110	-86
-108	-82
-102	-82
-100	-80
-98	-76
-108	-66
-106	-60
-112	-56
-116	-56
-122	-58
-122	-54
-122	-60
-120	-56
-122	-64
-116	-66
-116	-76
-108	-78
-104	-86
-100	-88
-96	-92
-92	-92
-86	-90
-90	-88
-92	-84
-100	-72
-108	-64
-108	-62
-114	-62
-112	-64
-112	-56
-110	-58
-106	-50
-94	-52
-84	-50
-94	-54
-104	-60
-112	-66
-118	-72
-112	-76
-108	-80
-104	-76
-102	-84
-102	-82
-98	-76
-100	-70
-104	-72
-108	-60
-122	-50
-136	-50
-146	-40
-150	-48
-146	-44
-144	-48
-136	-52
-136	-62
-130	-64
-122	-70
-112	-76
-106	-78
-102	-84
-98	-90
-100	-86
-96	-82
-92	-82
-94	-80
-92	-66
-82	-64
-78	-56
-74	-54
-68	-48
-76	-46
-88	-40
-102	-34
-118	-42
-128	-52
-144	-68
-142	-70
-146	-78
-140	-88
-134	-96
-122	-90
-122	-90
-118	-84
-116	-70
-116	-66
-110	-66
-110	-64
-114	-62
-112	-58
-120	-58
-116	-62
-122	-58
-114	-64
-120	-68
-116	-68
-120	-72
-116	-76
-112	-80
-104	-90
-100	-90
-98	-86
-108	-86
-110	-90
-106	-80
-108	-74
-114	-64
-118	-62
-118	-58
-116	-56
-112	-52
-114	-54
-118	-50
-108	-54
-110	-60
-106	-62
-94	-72
-92	-76
-78	-86
-58	-92
-44	-100
-46	-94
-64	-92
-80	-82
-94	-80
-104	-72
-116	-54
-130	-44
-140	-46
-140	-44
-136	-40
-126	-42
-126	-44
-126	-46
-130	-46
-126	-52
-124	-50
-124	-56
-116	-58
-108	-68
-110	-74
-100	-86
-96	-86
-94	-86
-90	-80
-96	-74
-106	-68
-112	-64
-108	-62
-114	-56
-112	-58
-110	-56
-108	-60
-118	-58
-108	-62
-108	-72
-116	-74
-126	-80
-132	-80
-130	-84
-132	-88
-130	-96
-128	-108
-124	-110
-122	-104
-124	-96
-120	-90
-126	-78
-122	-74
-126	-74
-126	-74
-130	-70
-122	-70
-122	-76
-116	-78
-116	-84
-112	-84
-108	-90
-110	-92
-108	-98
-108	-90
-106	-86
-108	-88
-106	-102
-112	-104
-114	-96
-114	-90
-114	-84
-112	-76
-116	-74
-114	-70
-114	-76
-116	-72
-108	-74
-104	-78
-94	-84
-88	-90
-82	-96
-82	-98
-78	-96
-70	-100
-64	-98
-60	-100
-68	-102
-82	-92
-100	-82
-124	-74
-148	-66
-168	-64
-178	-60
-176	-60
-174	-60
-164	-62
-154	-58
-150	-66
-148	-74
-146	-70
-140	-76
-138	-78
-130	-92
-126	-92
-122	-94
-116	-92
-110	-96
-112	-92
-112	-92
-118	-78
-118	-72
-122	-64
-122	-60
-116	-54
-118	-58
-118	-62
-116	-62
-114	-68
-112	-68
-108	-76
-106	-80
-104	-92
-106	-94
-104	-98
-96	-102
-98	-102
-100	-100
-96	-96
-94	-92
-88	-90
-86	-84
-86	-74
-104	-64
-124	-62
-144	-62
-148	-64
-144	-62
-138	-72
-128	-72
-120	-78
-116	-80
-108	-76
-110	-74
-112	-92
-110	-106
-112	-112
-106	-104
-112	-92
-116	-82
-132	-78
-144	-72
-146	-64
-140	-62
-130	-60
-132	-56
-128	-60
-130	-62
-130	-66
-132	-66
-128	-70
-130	-76
-118	-82
-116	-90
-108	-94
-116	-98
-110	-96
-104	-96
-104	-88
-100	-84
-98	-84
-90	-80
-96	-78
-96	-68
-100	-66
-108	-64
-114	-60
-132	-56
-146	-58
-158	-62
-160	-60
-150	-68
-140	-72
-134	-80
-124	-82
-120	-86
-110	-90
-100	-92
-102	-86
-102	-82
-102	-78
-112	-66
-122	-58
-140	-52
-146	-50
-152	-46
-156	-46
-154	-42
-148	-50
-144	-58
-138	-62
-134	-70
-132	-80
-122	-76
-118	-84
-118	-82
-114	-88
-106	-86
-108	-80
-112	-70
-122	-68
-126	-66
-130	-58
-134	-54
-132	-54
-136	-54
-134	-56
-136	-60
-136	-60
-138	-62
-138	-64
-142	-74
-138	-76
-134	-86
-128	-84
-128	-92
-124	-92
-118	-94
-124	-90
-118	-92
-112	-86
-110	-80
-100	-74
-86	-74
-74	-74
-74	-68
-98	-62
-114	-54
-138	-46
-164	-42
-182	-60
-190	-76
-188	-88
-178	-88
-166	-96
-156	-90
-152	-96
-150	-98
-154	-98
-150	-92
-142	-78
-140	-72
-140	-60
-138	-56
-142	-58
-142	-54
-152	-58
-156	-58
-152	-62
-148	-64
-146	-64
-140	-70
-138	-74
-132	-80
-128	-82
-126	-86
-128	-84
-128	-88
-126	-84
-132	-78
-130	-72
-124	-66
-122	-56
-122	-60
-126	-56
-132	-54
-138	-52
-142	-56
-150	-56
-154	-62
-152	-66
-144	-72
-132	-84
-126	-92
-120	-92
-120	-94
-122	-92
-124	-86
-120	-88
-114	-84
-114	-84
-106	-78
-104	-82
-110	-74
-118	-70
-128	-66
-138	-62
-152	-56
-170	-54
-174	-54
-172	-62
-160	-66
-158	-70
-152	-72
-152	-76
-146	-80
-144	-82
-146	-78
-140	-78
-140	-70
-136	-68
-138	-60
-144	-56
-140	-52
-142	-50
-140	-54
-138	-56
-140	-60
-140	-60
-140	-58
-136	-64
-136	-62
-134	-70
-134	-72
-130	-78
-136	-82
-134	-86
-136	-86
-132	-86
-132	-88
-130	-78
-120	-74
-112	-74
-116	-68
-128	-56
-142	-54
-154	-62
-156	-68
-152	-70
-148	-72
-138	-78
-132	-84
-132	-78
-132	-80
-138	-82
-148	-84
-152	-82
-146	-82
-148	-74
-144	-76
-144	-70
-142	-70
-130	-62
-134	-52
-128	-52
-128	-62
-130	-70
-130	-78
-132	-72
-134	-78
-140	-70
-164	-84
-154	-86
-162	-94
-160	-90
-158	-94
-144	-92
-148	-92
-142	-88
-148	-82
-148	-74
-148	-74
-156	-72
-148	-72
-148	-72
-148	-68
-142	-64
-150	-72
-152	-72
-152	-78
-158	-74
-160	-80
-158	-86
-146	-90
-140	-98
-134	-100
-136	-100
-140	-86
-150	-80
-158	-76
-160	-70
-158	-66
-156	-74
-156	-66
-154	-72
-150	-62
-150	-64
-144	-74
-140	-66
-154	-62
-152	-66
-144	-64
-136	-74
-142	-78
-152	-82
-164	-82
-174	-84
-178	-88
-186	-82
-176	-82
-172	-74
-168	-74
-168	-66
-168	-66
-166	-64
-162	-64
-158	-66
-160	-66
-158	-68
-162	-70
-162	-76
-162	-76
-164	-84
-160	-86
-160	-86
-152	-90
-146	-100
-130	-100
-132	-90
-138	-94
-152	-82
-164	-82
-162	-78
-166	-74
-162	-74
-162	-70
-152	-70
-154	-68
-148	-66
-162	-64
-166	-66
-172	-72
-176	-74
-176	-76
-174	-80
-160	-88
-152	-86
-146	-88
-138	-82
-138	-72
-138	-76
-144	-68
-152	-64
-160	-56
-174	-56
-176	-58
-178	-52
-174	-56
-166	-64
-162	-74
-160	-82
-158	-82
-156	-86
-156	-88
-150	-88
-154	-94
-144	-92
-134	-88
-128	-74
-122	-80
-116	-84
-114	-90
-120	-78
-124	-70
-142	-62
-160	-62
-176	-54
-178	-58
-182	-58
-176	-62
-168	-66
-162	-66
-156	-76
-152	-78
-148	-86
-140	-94
-140	-88
-134	-90
-126	-84
-128	-84
-122	-80
-118	-74
-116	-72
-114	-68
-116	-60
-118	-54
-132	-50
-150	-46
-164	-46
-168	-46
-166	-56
-154	-64
-142	-66
-128	-74
-116	-72
-102	-80
-94	-82
-96	-76
-102	-74
-120	-60
-144	-54
-158	-52
-176	-48
-176	-44
-176	-40
-164	-44
-166	-48
-156	-54
-154	-56
-144	-64
-142	-66
-134	-70
-128	-76
-120	-78
-120	-80
-118	-80
-120	-86
-122	-82
-120	-80
-126	-76
-132	-70
-146	-60
-154	-62
-162	-56
-158	-50
-152	-54
-148	-54
-144	-54
-144	-62
-136	-62
-122	-74
-112	-80
-108	-82
-118	-84
-130	-82
-138	-88
-142	-84
-144	-80
-138	-80
-138	-74
-136	-74
-140	-64
-138	-58
-142	-48
-150	-42
-166	-46
-172	-48
-178	-46
-176	-58
-166	-68
-158	-74
-150	-88
-134	-96
-124	-98
-126	-96
-124	-94
-126	-88
-130	-84
-134	-82
-136	-76
-146	-70
-156	-62
-162	-54
-164	-48
-164	-54
-164	-62
-160	-62
-152	-54
-154	-56
-152	-62
-152	-62
-146	-70
-142	-72
-140	-76
-140	-84
-140	-84
-136	-86
-138	-86
-138	-80
-136	-78
-138	-72
-138	-64
-138	-62
-142	-56
-148	-56
-152	-52
-150	-50
-150	-56
-152	-62
-150	-64
-138	-74
-128	-72
-116	-80
-112	-76
-108	-86
-104	-88
-108	-88
-116	-80
-134	-82
-148	-74
-158	-72
-164	-68
-168	-60
-162	-54
-156	-50
-156	-50
-152	-50
-148	-50
-144	-56
-148	-56
-136	-68
-138	-68
-134	-74
-136	-72
-142	-74
-142	-70
-146	-64
-150	-62
-156	-62
-162	-56
-170	-52
-176	-42
-180	-42
-180	-36
-180	-36
-174	-40
-170	-40
-170	-40
-160	-42
-154	-48
-142	-58
-142	-64
-134	-70
-130	-72
-120	-76
-122	-72
-128	-76
-136	-68
-138	-64
-134	-62
-146	-58
-150	-44
-164	-38
-166	-36
-162	-38
-162	-38
-170	-36
-180	-42
-178	-38
-172	-52
-170	-54
-156	-68
-146	-68
-142	-68
-134	-72
-138	-82
-144	-88
-154	-88
-160	-84
-162	-76
-156	-70
-156	-66
-154	-64
-148	-62
-146	-62
-148	-56
-154	-62
-158	-60
-164	-60
-160	-64
-150	-66
-140	-68
-122	-74
-106	-80
-84	-82
-76	-84
-72	-82
-80	-82
-100	-72
-130	-68
-168	-62
-194	-58
-198	-52
-202	-48
-188	-52
-178	-46
-172	-46
-162	-44
-162	-56
-172	-54
-180	-62
-182	-64
-178	-62
-176	-64
-174	-64
-170	-70
-166	-70
-160	-64
-152	-72
-156	-70
-152	-66
-166	-56
-168	-48
-170	-46
-168	-42
-166	-42
-168	-42
-168	-44
-166	-48
-170	-50
-166	-58
-162	-62
-162	-64
-156	-76
-148	-82
-140	-82
-134	-82
-134	-84
-132	-78
-132	-70
-138	-66
-144	-56
-154	-52
-160	-46
-168	-46
-170	-42
-158	-42
-164	-46
-158	-52
-158	-58
-154	-62
-164	-62
-166	-62
-170	-62
-170	-68
-168	-72
-172	-64
-172	-72
-176	-62
-174	-62
-178	-54
-174	-42
-180	-40
-180	-48
-174	-52
-168	-56
-160	-54
-152	-52
-156	-50
-152	-54
-154	-60
-160	-62
-170	-68
-180	-64
-186	-74
-190	-74
-192	-76
-188	-66
-192	-68
-188	-54
-182	-50
-184	-52
-178	-44
-176	-38
-166	-36
-158	-34
-140	-30
-130	-32
-122	-36
-118	-36
-120	-40
-116	-46
-120	-50
-118	-62
-114	-66
-116	-64
-128	-68
-136	-62
-136	-60
-126	-70
-122	-76
-112	-76
-102	-76
-104	-78
-108	-80
-120	-74
-136	-72
-150	-76
-156	-76
-154	-82
-150	-82
-154	-82
-162	-80
-174	-86
-178	-80
-184	-74
-180	-74
-180	-86
-188	-92
-186	-92
-194	-92
-190	-82
-182	-72
-186	-68
-184	-64
-184	-60
-190	-54
-192	-52
-198	-52
-204	-54
-206	-62
-214	-68
-210	-72
-216	-78
-212	-86
-210	-94
-208	-100
-208	-106
-206	-104
-214	-110
-218	-106
-224	-106
-228	-104
-226	-112
-220	-110
-212	-104
-202	-110
-200	-106
-190	-106
-182	-106
-182	-110
-184	-100
-190	-102
-188	-106
-194	-110
-188	-106
-180	-106
-172	-104
-166	-100
-160	-94
-156	-96
-154	-88
-162	-82
-162	-74
-162	-74
-164	-78
-172	-66
-178	-70
-192	-62
-200	-60
-196	-58
-188	-68
-186	-72
-184	-76
-182	-84
-180	-86
-170	-96
-160	-92
-146	-92
-126	-84
-106	-68
-88	-52
-68	-50
-50	-40
-38	-42
-28	-40
-22	-30
-16	-24
-12	-10
0	4
8	26
34	42
68	66
96	76
116	82
142	92
154	90
174	94
200	100
228	114
240	124
248	134
270	146
280	164
296	182
310	198
328	202
350	202
372	202
396	208
426	216
472	218
518	216
560	216
594	214
622	208
646	198
666	186
686	168
708	160
718	154
722	150
730	150
738	150
738	144
742	140
734	126
734	114
728	100
730	90
730	74
734	62
722	46
712	34
698	22
674	12
646	0
624	-2
606	-10
592	-16
578	-26
566	-28
558	-34
542	-36
530	-38
516	-30
500	-32
480	-34
452	-36
430	-38
410	-40
392	-40
384	-38
378	-44
370	-46
356	-48
346	-56
340	-52
328	-54
322	-56
306	-56
296	-52
280	-52
264	-50
248	-56
232	-50
218	-50
196	-54
184	-62
178	-66
172	-72
170	-80
170	-76
172	-82
168	-86
166	-86
150	-84
128	-84
110	-76
86	-74
72	-66
54	-62
40	-58
34	-50
28	-46
24	-50
22	-52
14	-56
-4	-60
-10	-60
-14	-74
-18	-78
-22	-88
-22	-92
-20	-96
-24	-98
-20	-104
-22	-96
-28	-92
-34	-86
-50	-72
-60	-72
-72	-68
-70	-68
-78	-62
-82	-66
-90	-62
-96	-64
-106	-72
-104	-78
-106	-82
-104	-92
-90	-98
-86	-102
-94	-100
-108	-98
-120	-98
-122	-88
-128	-82
-128	-88
-118	-90
-114	-84
-106	-76
-98	-80
-96	-82
-104	-84
-102	-80
-120	-82
-140	-80
-154	-78
-172	-78
-174	-82
-176	-90
-170	-92
-164	-92
-160	-96
-160	-100
-156	-100
-154	-102
-152	-100
-150	-98
-150	-96
-154	-92
-150	-82
-148	-78
-142	-78
-136	-74
-134	-80
-140	-78
-154	-84
-174	-80
-190	-82
-200	-78
-204	-84
-200	-86
-196	-88
-192	-90
-192	-92
-186	-90
-178	-88
-174	-78
-172	-74
-174	-74
-192	-68
-196	-66
-212	-66
-216	-66
-216	-68
-212	-76
-204	-84
-204	-88
-196	-90
-192	-100
-190	-96
-194	-98
-194	-98
-190	-94
-192	-92
-194	-86
-194	-80
-198	-78
-200	-78
-204	-70
-204	-70
-198	-72
-198	-68
-204	-72
-204	-72
-204	-74
-200	-78
-196	-84
-194	-86
-192	-88
-188	-96
-182	-96
-188	-94
-182	-92
-188	-90
-200	-88
-202	-82
-200	-78
-196	-74
-192	-70
-192	-66
-184	-60
-194	-58
-194	-62
-194	-58
-202	-64
-202	-72
-210	-80
-210	-80
-214	-90
-214	-90
-208	-96
-190	-98
-170	-98
-164	-100
-160	-98
-176	-88
-190	-80
-204	-72
-218	-60
-230	-56
-232	-58
-230	-60
-228	-60
-220	-62
-216	-58
-214	-64
-204	-72
-204	-90
-200	-94
-194	-96
-186	-94
-182	-94
-186	-90
-184	-88
-182	-84
-188	-80
-192	-76
-188	-68
-192	-58
-196	-54
-204	-52
-212	-58
-216	-62
-216	-68
-214	-72
-208	-72
-206	-74
-202	-76
-188	-82
-184	-80
-180	-86
-178	-90
-174	-86
-172	-84
-174	-76
-182	-76
-190	-70
-200	-60
-200	-60
-206	-56
-204	-54
-202	-52
-202	-52
-198	-54
-192	-58
-194	-54
-196	-62
-190	-62
-184	-68
-178	-78
-168	-82
-160	-88
-156	-90
-162	-88
-174	-76
-182	-74
-186	-64
-194	-60
-194	-50
-196	-54
-198	-52
-196	-46
-202	-46
-190	-46
-180	-54
-174	-62
-164	-72
-160	-74
-150	-82
-148	-90
-152	-84
-160	-80
-176	-76
-192	-74
-198	-74
-190	-68
-182	-66
-182	-60
-194	-54
-206	-54
-210	-50
-204	-52
-212	-52
-202	-58
-196	-64
-188	-68
-186	-68
-184	-82
-176	-84
-180	-84
-182	-88
-192	-88
-194	-84
-204	-82
-198	-82
-196	-86
-194	-80
-194	-72
-190	-68
-184	-60
-188	-72
-186	-80
-182	-88
-184	-84
-188	-78
-196	-80
-206	-84
-212	-84
-212	-86
-208	-90
-206	-92
-202	-92
-196	-94
-198	-90
-194	-90
-194	-86
-196	-82
-196	-78
-190	-78
-196	-72
-188	-74
-194	-70
-198	-80
-204	-70
-206	-74
-208	-74
-208	-78
-212	-78
-208	-84
-206	-86
-198	-92
-190	-88
-190	-90
-186	-94
-182	-90
-184	-86
-194	-86
-202	-74
-212	-68
-220	-66
-228	-66
-230	-62
-236	-60
-232	-60
-230	-62
-228	-66
-228	-66
-220	-72
-216	-76
-208	-84
-202	-82
-204	-84
-198	-86
-204	-88
-214	-82
-218	-84
-224	-70
-224	-64
-230	-62
-230	-62
-232	-60
-230	-62
-228	-62
-222	-72
-222	-78
-222	-80
-222	-88
-222	-86
-220	-80
-224	-68
-224	-62
-208	-64
-200	-72
-198	-70
-200	-68
-202	-62
-202	-58
-200	-56
-194	-46
-176	-42
-146	-38
-110	-40
-74	-40
-38	-44
-4	-50
30	-50
62	-60
96	-66
122	-68
144	-72
170	-76
192	-78
212	-74
230	-78
244	-74
256	-66
258	-62
258	-64
262	-64
262	-58
268	-66
280	-70
280	-70
270	-72
256	-64
254	-66
266	-64
296	-68
338	-76
380	-72
412	-82
440	-74
462	-72
482	-70
502	-64
520	-60
540	-56
562	-52
586	-50
624	-50
658	-46
696	-38
722	-28
724	-26
698	-16
664	-22
652	-24
678	-16
742	-2
832	10
898	6
942	2
944	-4
914	-10
846	-18
758	-26
644	-34
538	-38
446	-40
370	-36
304	-40
242	-48
182	-64
114	-76
42	-86
-20	-90
-64	-108
-98	-126
-114	-134
-118	-146
-122	-150
-116	-144
-116	-134
-106	-128
-98	-124
-90	-118
-84	-120
-88	-120
-86	-114
-90	-108
-100	-106
-120	-94
-132	-92
-144	-84
-146	-86
-138	-86
-140	-86
-132	-94
-136	-96
-134	-100
-130	-98
-132	-104
-128	-102
-132	-100
-132	-100
-134	-98
-134	-94
-138	-90
-138	-88
-140	-84
-142	-82
-144	-86
-140	-84
-146	-86
-150	-88
-148	-92
-146	-90
-146	-96
-150	-100
-148	-106
-144	-102
-142	-96
-132	-102
-118	-92
-110	-94
-108	-94
-106	-94
-108	-94
-122	-90
-144	-90
-172	-86
-190	-86
-202	-82
-206	-74
-198	-78
-190	-80
-174	-88
-166	-92
-166	-96
-162	-96
-164	-100
-172	-106
-188	-110
-186	-106
-194	-102
-196	-98
-194	-96
-190	-92
-190	-88
-184	-84
-176	-80
-166	-82
-174	-78
-184	-76
-198	-82
-200	-92
-200	-90
-200	-92
-206	-98
-214	-100
-210	-104
-204	-110
-198	-114
-186	-104
-190	-102
-194	-98
-198	-90
-210	-84
-218	-70
-232	-68
-234	-70
-234	-74
-230	-78
-224	-82
-222	-84
-220	-88
-222	-86
-218	-90
-214	-100
-206	-104
-202	-108
-192	-104
-184	-106
-186	-104
-196	-104
-198	-96
-206	-90
-206	-90
-218	-92
-218	-94
-220	-92
-222	-90
-226	-90
-222	-82
-218	-84
-222	-84
-224	-86
-212	-90
-222	-100
-214	-108
-210	-108
-208	-112
-210	-108
-210	-110
-204	-102
-208	-100
-206	-100
-206	-102
-206	-92
-214	-88
-212	-80
-218	-84
-220	-80
-228	-80
-236	-82
-238	-82
-234	-86
-226	-96
-218	-98
-214	-100
-214	-104
-212	-102
-216	-100
-218	-98
-218	-92
-222	-88
-218	-84
-220	-76
-224	-74
-224	-70
-226	-72
-228	-72
-234	-70
-232	-72
-228	-74
-222	-78
-210	-86
-204	-92
-192	-94
-192	-98
-184	-100
-188	-102
-196	-102
-216	-96
-228	-92
-230	-88
-234	-90
-224	-82
-218	-76
-208	-78
-206	-78
-210	-70
-216	-72
-218	-70
-230	-74
-234	-76
-228	-74
-224	-82
-226	-80
-218	-90
-214	-96
-214	-100
-220	-96
-232	-92
-240	-86
-238	-82
-244	-72
-242	-74
-242	-60
-258	-56
-260	-56
-268	-62
-262	-58
-262	-66
-254	-68
-246	-74
-240	-74
-234	-78
-232	-86
-234	-94
-228	-82
-234	-90
-232	-86
-234	-88
-238	-78
-236	-76
-236	-70
-238	-68
-234	-64
-234	-56
-240	-50
-238	-54
-238	-56
-230	-58
-226	-60
-224	-62
-234	-60
-238	-60
-242	-70
-236	-70
-236	-78
-232	-80
-228	-78
-228	-74
-230	-72
-230	-66
-228	-64
-230	-56
-234	-56
-232	-52
-236	-50
-238	-48
-238	-46
-240	-48
-242	-52
-242	-58
-234	-60
-234	-70
-234	-68
-232	-76
-224	-80
-226	-76
-226	-78
-222	-72
-224	-72
-218	-66
-218	-62
-216	-60
-228	-58
-238	-50
-248	-52
-254	-42
-254	-36
-260	-54
-256	-62
-254	-68
-244	-68
-244	-70
-242	-74
-234	-80
-236	-82
-228	-78
-232	-84
-230	-80
-230	-82
-232	-74
-236	-74
-234	-70
-230	-60
-226	-60
-230	-60
-234	-56
-250	-62
-240	-60
-238	-64
-240	-58
-238	-64
-238	-66
-236	-68
-230	-78
-228	-82
-212	-76
-200	-76
-194	-80
-184	-82
-174	-78
-174	-70
-172	-60
-184	-62
-194	-56
-208	-54
-230	-48
-256	-46
-274	-42
-294	-44
-302	-40
-296	-48
-286	-58
-274	-66
-262	-66
-254	-70
-250	-72
-240	-74
-234	-68
-232	-68
-228	-62
-226	-58
-226	-58
-224	-50
-226	-44
-226	-38
-232	-42
-234	-42
-236	-44
-240	-48
-234	-52
-226	-58
-226	-62
-218	-68
-218	-64
-220	-66
-222	-68
-224	-72
-226	-62
-228	-52
-226	-44
-232	-42
-232	-46
-234	-44
-234	-36
-236	-42
-234	-40
-238	-38
-236	-38
-238	-42
-232	-46
-232	-54
-232	-60
-226	-64
-226	-66
-222	-70
-218	-78
-212	-74
-200	-80
-200	-72
-204	-60
-220	-50
-230	-42
-238	-38
-238	-40
-238	-38
-240	-32
-248	-38
-248	-38
-250	-38
-252	-38
-252	-44
-246	-50
-240	-54
-236	-56
-230	-54
-224	-62
-228	-58
-224	-66
-230	-66
-234	-60
-232	-56
-234	-42
-232	-34
-234	-36
-230	-40
-234	-34
-230	-32
-230	-34
-232	-32
-234	-34
-236	-38
-238	-44
-244	-42
-240	-52
-234	-52
-228	-52
-224	-52
-226	-56
-220	-48
-220	-40
-222	-30
-218	-32
-228	-32
-222	-32
-222	-28
-228	-26
-222	-28
-228	-30
-234	-30
-238	-32
-246	-34
-248	-38
-242	-36
-240	-40
-236	-40
-234	-42
-236	-46
-238	-44
-232	-40
-238	-34
-244	-26
-240	-28
-236	-26
-240	-26
-242	-30
-230	-32
-230	-30
-226	-36
-220	-38
-220	-40
-220	-42
-230	-44
-232	-44
-238	-46
-238	-48
-238	-46
-238	-40
-234	-38
-238	-34
-242	-30
-244	-22
-244	-24
-240	-22
-240	-22
-242	-22
-246	-18
-244	-22
-242	-22
-246	-28
-242	-28
-234	-38
-228	-44
-222	-50
-216	-50
-210	-60
-214	-58
-216	-54
-226	-38
-236	-30
-246	-14
-252	-18
-252	-24
-250	-24
-252	-24
-256	-26
-260	-22
-258	-24
-254	-26
-254	-26
-252	-30
-244	-32
-236	-34
-238	-44
-232	-48
-232	-48
-226	-52
-222	-56
-210	-48
-226	-42
-242	-42
-252	-32
-260	-28
-258	-24
-258	-22
-254	-22
-252	-22
-248	-22
-252	-12
-260	-8
-256	-14
-258	-30
-256	-38
-256	-36
-248	-40
-242	-42
-240	-34
-240	-34
-236	-30
-236	-28
-238	-26
-234	-22
-238	-18
-234	-18
-240	-14
-242	-12
-244	-18
-240	-16
-242	-16
-230	-22
-236	-22
-234	-28
-230	-34
-230	-34
-226	-36
-224	-40
-230	-38
-238	-26
-248	-28
-252	-20
-252	-14
-260	-10
-248	-12
-250	-6
-244	-6
-252	-6
-260	-8
-268	-8
-264	-8
-268	-8
-270	-14
-264	-14
-258	-18
-254	-26
-244	-32
-234	-42
-226	-42
-222	-42
-222	-38
-228	-30
-228	-24
-242	-14
-254	-6
-268	0
-276	4
-282	6
-282	2
-282	4
-278	10
-280	4
-280	-10
-276	-14
-272	-24
-260	-26
-256	-28
-250	-30
-242	-26
-236	-28
-238	-22
-234	-22
-242	-16
-250	-10
-256	-4
-262	0
-268	6
-270	2
-268	2
-262	2
-262	-6
-248	-10
-252	-12
-246	-14
-240	-22
-228	-24
-224	-32
-210	-34
-204	-26
-216	-26
-214	-20
-214	-18
-230	-12
-238	-8
-256	-4
-272	2
-280	-4
-282	0
-280	8
-278	2
-274	4
-270	-2
-264	-10
-260	-18
-266	-22
-262	-22
-258	-22
-250	-24
-250	-28
-248	-26
-242	-20
-240	-20
-242	-12
-248	-8
-248	-8
-258	-2
-258	0
-260	4
-254	6
-256	6
-250	6
-252	2
-254	2
-252	-6
-244	-10
-228	-16
-226	-18
-236	-14
-240	-12
-252	-8
-258	-10
-260	-8
-264	4
-260	6
-260	6
-252	8
-250	20
-250	24
-256	24
-264	20
-258	2
-258	-12
-248	-14
-246	-16
-250	-20
-246	-22
-250	-26
-244	-24
-242	-24
-248	-16
-248	-16
-244	-10
-250	-8
-252	-4
-252	-6
-252	-2
-262	0
-262	10
-262	12
-264	8
-260	2
-260	6
-256	4
-254	-2
-248	-8
-236	-12
-238	-18
-232	-22
-228	-22
-228	-18
-230	-12
-230	-2
-238	-2
-242	-2
-246	6
-258	14
-262	16
-266	22
-260	16
-260	12
-260	6
-258	2
-252	0
-250	-4
-246	-10
-246	-10
-238	-14
-238	-18
-232	-14
-234	-14
-230	-10
-234	0
-238	4
-228	-6
-234	-4
-234	-4
-232	0
-234	6
-238	6
-238	2
-234	8
-248	-2
-254	4
-258	-2
-254	-4
-248	-6
-246	-14
-242	-14
-238	-12
-230	-14
-234	-12
-238	-6
-238	-2
-244	2
-244	4
-248	10
-252	10
-258	12
-258	14
-264	14
-266	12
-262	6
-266	8
-256	4
-254	-4
-248	-8
-244	-14
-238	-16
-234	-14
-228	-14
-228	-14
-226	-10
-222	-8
-234	0
-240	2
-254	2
-250	8
-256	16
-254	16
-248	10
-250	6
-238	2
-242	-2
-242	-8
-246	0
-244	-2
-242	-14
-238	-10
-232	-12
-230	-10
-212	-18
-216	-8
-226	6
-250	16
-266	22
-274	26
-274	18
-270	18
-270	22
-266	20
-264	18
-264	14
-260	8
-264	4
-260	-2
-262	-6
-256	-8
-254	-8
-252	-8
-244	-4
-240	-2
-242	4
-238	0
-242	0
-240	4
-244	2
-248	12
-258	18
-260	22
-268	18
-268	12
-264	10
-264	4
-256	-2
-264	0
-260	-12
-260	-16
-258	-20
-256	-22
-256	-16
-242	-12
-252	-8
-258	-6
-262	6
-262	4
-260	4
-262	8
-258	16
-262	20
-256	16
-256	4
-262	-6
-268	-10
-268	-12
-266	-12
-260	-16
-262	-16
-262	-16
-262	-14
-270	-14
-270	-10
-274	-2
-272	-4
-280	0
-276	8
-280	6
-268	10
-270	16
-258	18
-254	16
-254	10
-250	16
-254	10
-256	10
-266	12
-268	8
-270	0
-270	0
-262	-6
-264	-2
-258	2
-266	4
-268	8
-274	16
-286	20
-284	22
-282	22
-286	24
-288	26
-288	24
-290	24
-288	24
-280	20
-282	10
-276	8
-272	4
-270	4
-274	4
-268	-2
-264	4
-266	4
-266	10
-270	14
-266	20
-272	24
-272	26
-276	24
-276	30
-278	28
-280	22
-274	20
-274	20
-274	16
-270	14
-272	8
-266	0
-268	-6
-262	-12
-258	-4
-260	-6
-254	2
-258	6
-272	14
-276	28
-280	24
-274	22
-260	26
-266	32
-282	38
-288	30
-294	26
-296	20
-288	18
-290	12
-280	6
-272	8
-266	-4
-270	-2
-266	-2
-274	-4
-276	2
-276	10
-278	14
-284	20
-282	18
-280	26
-282	30
-284	36
-284	38
-286	36
-290	34
-282	30
-284	24
-278	20
-270	16
-256	8
-254	8
-248	6
-252	4
-252	8
-256	20
-262	40
-278	40
-296	24
-306	20
-308	28
-304	34
-304	42
-298	42
-292	44
-294	38
-286	38
-288	32
-286	32
-286	24
-282	26
-280	18
-282	18
-284	16
-286	18
-284	18
-278	24
-284	30
-286	34
-292	38
-292	42
-296	44
-294	46
-292	42
-296	44
-290	44
-292	36
-288	36
-286	34
-280	28
-284	24
-284	22
-286	28
-290	24
-280	24
-282	28
-276	26
-272	30
-272	34
-268	38
-270	40
-282	48
-298	52
-312	54
-320	56
-320	46
-318	48
-316	42
-312	32
-302	24
-298	20
-290	16
-282	8
-278	12
-278	12
-278	16
-278	20
-280	20
-284	26
-290	28
-294	30
-296	38
-294	38
-290	38
-290	38
-284	32
-280	24
-280	22
-278	18
-278	18
-276	16
-284	18
-286	14
-292	14
-290	14
-286	18
-284	22
-288	22
-290	34
-288	36
-296	38
-300	42
-304	42
-302	44
-302	44
-300	42
-296	38
-292	38
-290	36
-288	24
-278	26
-276	28
-276	20
-270	18
-268	14
-274	20
-278	28
-280	30
-280	40
-282	44
-286	48
-290	54
-296	52
-304	40
-312	28
-308	22
-302	22
-296	20
-290	18
-284	18
-290	14
-292	10
-290	6
-288	4
-284	10
-282	12
-274	10
-260	26
-264	30
-278	42
-294	52
-310	52
-312	52
-312	44
-308	42
-296	44
-298	38
-290	34
-286	26
-284	28
-278	22
-276	16
-280	16
-278	22
-280	20
-276	22
-274	22
-274	20
-278	30
-278	36
-286	40
-294	44
-304	48
-308	54
-306	46
-304	44
-302	40
-298	38
-292	36
-280	30
-276	24
-272	22
-268	20
-268	20
-266	22
-274	22
-282	34
-290	36
-292	36
-294	40
-290	42
-290	44
-292	46
-284	52
-290	50
-296	42
-298	44
-298	42
-298	36
-298	30
-298	28
-292	22
-286	22
-274	18
-282	20
-272	16
-274	20
-278	28
-280	32
-282	38
-286	42
-288	42
-292	50
-288	48
-286	48
-280	46
-268	40
-264	36
-260	38
-262	38
-260	34
-266	26
-272	20
-276	18
-280	28
-286	32
-288	42
-292	48
-290	48
-292	52
-294	54
-292	60
-290	60
-290	62
-292	56
-298	60
-296	56
-300	54
-296	54
-290	44
-282	40
-282	38
-276	34
-278	36
-274	32
-276	38
-278	38
-280	42
-278	42
-282	42
-284	54
-286	48
-282	48
-282	48
-282	50
-284	52
-288	56
-288	58
-284	58
-280	48
-278	32
-278	24
-284	18
-282	22
-284	22
-286	28
-280	36
-282	40
-286	42
-290	50
-298	58
-302	56
-300	54
-300	58
-304	62
-298	48
-296	54
-288	46
-274	38
-262	34
-266	38
-274	38
-292	42
-298	42
-302	40
-302	42
-296	44
-294	52
-292	50
-290	50
-290	56
-284	58
-288	62
-284	62
-290	66
-296	62
-298	54
-290	54
-294	52
-298	48
-306	44
-314	38
-308	44
-312	44
-310	46
-306	54
-302	48
-300	44
-302	52
-302	60
-300	58
-302	56
-300	58
-296	60
-298	56
-300	56
-302	50
-296	48
-292	46
-290	38
-282	30
-278	32
-266	28
-268	28
-262	34
-268	34
-270	38
-280	42
-288	46
-300	54
-304	56
-306	52
-298	56
-304	58
-294	52
-288	50
-282	52
-274	46
-268	42
-260	36
-260	32
-256	26
-260	32
-270	38
-282	36
-288	40
-286	42
-284	48
-288	52
-290	60
-288	72
-296	70
-300	60
-308	48
-308	42
-302	46
-304	42
-298	42
-294	40
-292	38
-282	36
-280	32
-276	36
-268	42
-268	40
-270	38
-274	42
-270	48
-278	58
-292	70
-298	64
-300	64
-296	64
-298	62
-298	62
-290	58
-292	58
-288	54
-286	52
-284	46
-284	44
-286	36
-286	36
-282	40
-284	34
-284	38
-284	36
-284	38
-284	42
-288	48
-286	54
-296	60
-296	56
-302	58
-296	58
-296	56
-292	52
-296	46
-294	46
-296	46
-296	52
-292	48
-298	50
-292	46
-296	46
-292	56
-296	62
-294	62
-292	58
-298	56
-296	62
-300	60
-302	64
-300	66
-296	62
-292	60
-288	52
-290	50
-286	42
-282	36
-278	34
-270	24
-262	24
-252	20
-236	18
-220	16
-218	24
-232	36
-264	42
-292	58
-314	58
-330	58
-336	62
-340	54
-334	56
-336	50
-332	48
-324	46
-320	36
-310	34
-302	30
-296	28
-292	28
-286	28
-296	32
-292	44
-296	40
-300	44
-300	50
-302	52
-308	60
-302	62
-310	60
-308	60
-306	60
-302	54
-302	52
-310	50
-310	50
-304	50
-298	56
-298	52
-290	38
-286	28
-286	28
-274	30
-282	34
-286	36
-290	44
-294	48
-298	48
-302	52
-306	52
-314	58
-310	54
-316	52
-314	58
-308	54
-304	52
-298	40
-292	26
-288	26
-284	20
-282	22
-276	24
-288	32
-288	40
-292	46
-296	50
-298	52
-300	56
-306	62
-304	64
-310	62
-314	58
-310	58
-312	50
-308	46
-302	42
-298	34
-294	32
-292	30
-284	36
-284	40
-278	46
-284	56
-286	54
-290	64
-296	64
-300	72
-310	74
-314	78
-314	76
-312	68
-316	70
-308	58
-310	62
-308	58
-306	50
-300	44
-298	40
-292	48
-294	46
-294	42
-290	54
-290	52
-294	60
-294	68
-294	72
-292	74
-298	78
-296	78
-296	78
-296	76
-296	76
-296	72
-296	74
-296	66
-296	68
-296	58
-290	52
-286	50
-280	44
-268	42
-260	38
-258	42
-262	48
-268	54
-268	54
-270	62
-274	70
-282	78
-298	82
-306	84
-316	78
-318	76
-328	68
-334	58
-330	58
-340	54
-332	52
-324	54
-316	50
-312	42
-306	30
-294	28
-284	38
-274	44
-270	54
-274	60
-280	66
-284	70
-292	72
-296	68
-304	72
-306	66
-312	62
-310	58
-310	58
-322	58
-322	58
-322	60
-314	60
-310	56
-304	42
-298	32
-298	46
-304	52
-306	62
-314	66
-312	72
-320	74
-322	78
-314	74
-318	68
-310	70
-302	60
-290	56
-286	54
-270	46
-268	38
-270	42
-270	40
-272	42
-286	42
-294	52
-310	62
-316	64
-318	68
-316	70
-322	72
-316	74
-312	72
-312	70
-306	66
-298	62
-288	58
-282	62
-274	50
-270	44
-262	48
-266	44
-274	46
-282	44
-294	54
-300	52
-302	54
-306	56
-306	62
-308	70
-310	70
-306	70
-306	68
-300	68
-300	64
-292	66
-294	66
-302	62
-294	54
-300	56
-302	50
-302	46
-300	48
-298	50
-288	52
-294	54
-290	60
-296	66
-298	76
-300	76
-300	78
-296	82
-292	78
-288	74
-290	76
-292	74
-304	66
-312	68
-316	62
-316	62
-312	56
-300	52
-300	52
-292	56
-292	58
-294	56
-296	52
-298	60
-302	70
-306	64
-302	70
-298	68
-296	66
-290	64
-286	62
-280	64
-282	58
-278	56
-280	52
-286	52
-290	48
-298	50
-302	46
-302	44
-304	50
-300	56
-296	58
-292	62
-296	66
-282	68
-280	66
-274	66
-274	66
-270	66
-268	66
-270	58
-278	56
-292	50
-308	48
-314	46
-312	36
-308	46
-306	48
-302	50
-308	50
-310	52
-316	60
-318	64
-318	66
-316	66
-316	70
-314	66
-312	70
-312	66
-304	66
-306	70
-310	60
-310	64
-314	54
-308	54
-302	48
-300	38
-296	32
-296	34
-302	44
-304	50
-306	58
-304	56
-308	62
-304	62
-310	66
-306	64
-302	66
-306	68
-304	60
-308	62
-304	56
-306	54
-302	52
-304	50
-300	44
-298	40
-298	36
-292	32
-292	36
-290	34
-288	42
-286	44
-288	46
-290	52
-290	54
-296	54
-302	54
-300	52
-304	50
-304	42
-306	34
-298	34
-290	30
-276	26
-262	20
-264	20
-258	16
-250	18
-246	24
-258	30
-276	36
-298	46
-308	48
-312	52
-316	52
-322	56
-326	56
-320	54
-320	50
-320	46
-314	42
-320	40
-318	40
-324	36
-310	34
-308	34
-300	24
-294	28
-296	30
-290	28
-292	32
-282	42
-286	46
-294	48
-298	54
-302	46
-308	54
-312	58
-316	56
-312	50
-316	48
-312	48
-312	36
-302	32
-306	26
-296	20
-296	20
-290	18
-282	18
-282	22
-284	22
-280	30
-282	32
-284	36
-290	36
-300	42
-302	46
-314	48
-324	48
-328	48
-332	50
-326	46
-318	38
-316	32
-312	26
-304	28
-308	30
-300	28
-304	34
-308	36
-304	38
-302	42
-308	48
-304	54
-308	54
-310	50
-308	54
-308	58
-304	46
-308	36
-308	34
-302	32
-302	36
-296	32
-296	24
-292	22
-286	26
-286	18
-278	20
-272	22
-278	30
-294	38
-304	44
-314	44
-322	44
-318	46
-310	48
-310	54
-308	58
-308	50
-310	46
-310	46
-302	34
-300	36
-298	30
-296	32
-288	32
-290	36
-284	36
-284	34
-284	34
-288	40
-292	42
-288	48
-294	54
-294	56
-300	52
-306	56
-308	60
-306	60
-306	60
-304	56
-300	38
-294	24
-288	18
-280	20
-274	18
-276	20
-270	22
-272	32
-264	36
-254	36
-254	42
-250	44
-252	48
-260	50
-274	48
-292	54
-310	52
-314	52
-320	46
-314	40
-310	40
-304	34
-300	32
-294	28
-300	26
-290	30
-284	40
-278	42
-276	44
-278	50
-284	52
-284	58
-292	60
-300	62
-302	64
-310	60
-310	58
-306	54
-302	52
-296	42
-290	46
-286	42
-284	36
-282	34
-282	34
-280	32
-272	34
-266	36
-264	38
-254	46
-248	50
-252	54
-252	56
-266	62
-282	56
-302	52
-320	52
-328	48
-330	50
-320	44
-310	38
-306	28
-294	26
-290	26
-284	20
-278	20
-274	22
-276	28
-282	36
-282	42
-288	44
-292	48
-296	50
-296	46
-296	46
-290	42
-298	44
-296	40
-294	42
-290	36
-290	44
-286	40
-282	28
-278	12
-280	0
-276	2
-274	10
-278	18
-280	26
-284	34
-286	38
-290	38
-292	40
-290	38
-286	42
-288	42
-290	40
-288	38
-294	32
-288	28
-286	24
-280	16
-276	16
-270	10
-260	10
-256	6
-254	10
-248	12
-238	12
-228	14
-230	30
-246	42
-258	48
-274	42
-286	48
-296	44
-296	42
-290	36
-288	32
-282	26
-280	18
-268	18
-268	20
-270	16
-284	22
-284	24
-292	28
-292	30
-294	34
-294	44
-290	54
-286	56
-284	50
-288	48
-290	42
-288	44
-288	44
-288	46
-278	34
-274	38
-268	28
-264	24
-260	18
-254	16
-258	12
-260	14
-272	12
-274	14
-278	24
-286	30
-286	32
-286	36
-286	44
-280	38
-280	46
-268	34
-268	34
-268	36
-266	28
-264	22
-266	22
-280	16
-278	18
-282	22
-288	24
-288	24
-280	26
-274	32
-272	34
-278	36
-272	38
-278	36
-274	42
-284	42
-278	42
-276	40
-278	42
-272	38
-270	30
-268	24
-266	20
-264	12
-260	12
-260	16
-262	10
-266	12
-272	20
-272	22
-276	30
-272	32
-270	36
-272	40
-268	42
-268	58
-268	60
-270	52
-272	38
-276	34
-284	36
-284	34
-288	30
-282	32
-270	28
-268	26
-266	24
-260	28
-264	36
-272	38
-274	40
-274	40
-278	38
-274	44
-278	44
-280	44
-280	46
-282	42
-288	42
-284	34
-286	34
-276	26
-282	20
-278	14
-276	6
-274	8
-268	6
-268	10
-260	16
-254	14
-250	22
-248	24
-248	32
-254	38
-266	44
-276	50
-290	44
-304	36
-302	36
-304	34
-296	32
-296	28
-286	18
-282	14
-276	12
-270	8
-262	16
-256	6
-252	12
-250	12
-252	18
-250	22
-260	28
-270	34
-280	42
-296	42
-298	44
-304	42
-296	40
-292	40
-294	36
-288	32
-282	20
-280	16
-274	8
-264	2
-250	2
-250	4
-268	14
-288	20
-296	24
-302	30
-300	32
-304	38
-302	34
-300	32
-304	36
-300	34
-296	34
-294	30
-296	28
-288	22
-288	20
-284	18
-286	10
-282	8
-276	4
-280	8
-282	8
-272	10
-280	12
-282	22
-284	32
-286	36
-286	30
-284	22
-284	20
-286	20
-286	18
-282	24
-280	16
-282	12
-272	10
-270	4
-268	6
-262	2
-258	0
-252	4
-256	14
-258	16
-266	18
-272	20
-274	16
-282	24
-280	26
-284	20
-290	20
-282	16
-278	22
-286	26
-292	30
-292	24
-288	24
-282	16
-284	8
-270	8
-264	-2
-248	2
-246	2
-246	8
-250	14
-264	26
-280	34
-294	38
-296	38
-298	40
-290	36
-288	32
-282	30
-272	24
-266	22
-266	16
-264	10
-266	4
-272	4
-276	4
-280	-4
-276	10
-276	10
-270	10
-272	16
-274	20
-276	26
-284	30
-286	32
-292	28
-292	36
-292	34
-290	32
-286	26
-278	28
-278	24
-276	20
-272	12
-270	16
-266	4
-268	10
-268	10
-266	8
-264	16
-260	26
-264	24
-262	26
-260	24
-268	28
-272	30
-282	38
-292	38
-298	38
-292	30
-294	32
-292	22
-284	18
-280	16
-274	6
-272	4
-268	2
-274	4
-270	4
-274	16
-276	24
-274	26
-276	30
-280	32
-284	36
-284	38
-290	38
-290	42
-290	48
-286	54
-286	42
-288	18
-282	6
-278	-2
-274	-4
-280	2
-272	2
-276	0
-278	4
-280	10
-280	14
-286	18
-280	20
-284	20
-276	30
-278	30
-276	32
-280	32
-282	32
-278	28
-280	26
-278	24
-276	14
-270	8
-266	10
-270	6
-262	4
-260	6
-258	6
-262	8
-260	18
-268	22
-278	20
-278	24
-288	26
-292	22
-288	24
-292	22
-288	22
-280	14
-276	18
-270	10
-264	4
-264	0
-260	-4
-260	-6
-262	-2
-262	-8
-266	-2
-266	4
-272	2
-266	2
-272	10
-266	12
-258	14
-258	18
-270	26
-284	26
-292	24
-290	22
-290	10
-276	6
-262	-2
-258	-12
-246	-6
-246	-6
-244	-6
-246	-2
-250	2
-258	4
-266	14
-270	14
-274	14
-280	20
-282	18
-284	12
-288	14
-280	14
-274	4
-268	2
-250	-6
-240	-8
-236	-10
-234	-16
-236	-22
-244	-14
-250	-8
-262	4
-270	8
-270	16
-266	16
-266	14
-262	10
-264	8
-266	14
-266	10
-266	-2
-272	-4
-278	-6
-274	-8
-272	-8
-268	-8
-264	-12
-262	-18
-254	-22
-254	-24
-252	-24
-256	-22
-256	-22
-254	-18
-254	-14
-260	-8
-258	-2
-264	2
-264	4
-264	0
-268	0
-262	-6
-260	-8
-262	-8
-262	-6
-272	-8
-276	-16
-276	-24
-274	-26
-266	-22
-262	-24
-256	-20
-248	-24
-250	-12
-250	-12
-258	-6
-262	-8
-272	-6
-270	2
-272	4
-270	2
-270	6
-270	6
-270	-2
-268	4
-270	-6
-262	-6
-254	-18
-242	-20
-236	-24
-232	-24
-230	-24
-230	-22
-232	-14
-244	-12
-252	-10
-254	-4
-256	-6
-246	-4
-226	-10
-210	-18
-202	-18
-200	-20
-206	-20
-214	-24
-236	-18
-264	-14
-288	-18
-308	-16
-318	-16
-308	-8
-296	-14
-286	-20
-278	-30
-276	-24
-274	-16
-278	-6
-282	-2
-282	2
-280	0
-278	4
-276	2
-272	2
-264	-4
-264	-10
-264	-14
-258	-20
-252	-20
-254	-20
-244	-26
-254	-24
-256	-22
-248	-22
-270	-16
-262	-12
-264	-8
-260	-6
-260	-4
-258	0
-248	8
-246	2
-244	2
-248	2
-264	6
-276	2
-282	-2
-280	-6
-282	-14
-276	-20
-266	-22
-258	-22
-252	-28
-246	-28
-244	-30
-246	-28
-246	-16
-252	-12
-258	0
-258	-4
-266	4
-258	2
-262	-2
-266	-6
-268	-6
-260	-14
-260	-20
-264	-24
-266	-24
-264	-26
-262	-24
-252	-26
-246	-20
-244	-20
-246	-12
-250	0
-270	14
-276	10
-284	8
-286	0
-284	2
-268	0
-262	-2
-246	-4
-242	-6
-238	-16
-236	-18
-246	-18
-252	-22
-268	-24
-278	-26
-282	-18
-288	-12
-284	-6
-282	-2
-286	0
-278	0
-278	0
-278	10
-274	10
-274	8
-278	10
-274	0
-274	0
-274	-2
-270	-10
-262	-16
-258	-18
-246	-18
-242	-20
-238	-20
-234	-20
-232	-24
-230	-26
-238	-22
-242	-12
-248	-10
-254	-4
-262	-6
-264	-2
-272	6
-270	-6
-270	-8
-262	-8
-256	-8
-264	-12
-266	-20
-278	-18
-282	-14
-280	-16
-286	-20
-282	-20
-280	-24
-282	-20
-286	-14
-278	-12
-272	-12
-264	-4
-260	-8
-262	-4
-270	-4
-276	4
-288	10
-306	8
-314	4
-318	4
-310	-4
-302	-12
-292	-18
-282	-26
-274	-28
-272	-28
-272	-32
-270	-28
-272	-20
-282	-16
-288	-8
-292	-6
-302	4
-294	0
-280	4
-274	0
-268	-2
-250	-8
-242	-10
-236	-12
-236	-22
-236	-24
-244	-28
-262	-32
-278	-36
-290	-30
-292	-30
-296	-26
-298	-20
-300	-22
-296	-18
-290	-18
-286	-16
-282	-8
-280	-12
-270	-20
-266	-24
-262	-26
-254	-32
-244	-38
-236	-50
-232	-56
-228	-62
-234	-62
-240	-62
-254	-52
-260	-44
-272	-44
-278	-40
-282	-28
-280	-36
-280	-36
-276	-34
-266	-32
-272	-28
-284	-30
-286	-32
-284	-34
-282	-36
-280	-38
-288	-40
-296	-34
-300	-36
-300	-44
-298	-48
-286	-58
-278	-58
-262	-56
-256	-46
-250	-42
-242	-32
-244	-36
-242	-42
-250	-42
-260	-38
-274	-36
-290	-32
-296	-36
-302	-38
-298	-38
-288	-42
-286	-48
-278	-58
-272	-66
-264	-72
-258	-70
-252	-66
-246	-62
-242	-58
-242	-54
-246	-48
-250	-42
-254	-40
-270	-42
-286	-38
-298	-34
-300	-40
-302	-48
-282	-54
-262	-58
-238	-62
-224	-70
-212	-76
-208	-78
-222	-80
-236	-78
-254	-74
-284	-62
-316	-50
-334	-40
-348	-36
-342	-36
-320	-42
-304	-40
-294	-42
-284	-44
-276	-52
-272	-54
-266	-54
-270	-48
-286	-44
-298	-44
-312	-44
-316	-44
-314	-44
-302	-46
-292	-50
-294	-52
-288	-54
-290	-50
-290	-46
-286	-44
-294	-40
-294	-38
-296	-36
-294	-38
-292	-40
-286	-42
-286	-46
-288	-48
-286	-54
-278	-60
-282	-66
-270	-62
-276	-62
-278	-66
-280	-60
-282	-58
-288	-52
-280	-52
-292	-44
-290	-38
-294	-32
-300	-26
-302	-32
-304	-40
-306	-38
-310	-40
-304	-44
-298	-48
-296	-50
-286	-56
-276	-54
-276	-54
-278	-62
-282	-72
-282	-72
-288	-64
-294	-56
-306	-46
-310	-42
-308	-40
-304	-34
-290	-34
-284	-36
-272	-40
-268	-40
-272	-38
-266	-32
-270	-34
-290	-36
-296	-40
-298	-40
-302	-48
-302	-46
-306	-50
-312	-48
-318	-50
-324	-46
-328	-38
-324	-32
-330	-28
-328	-28
-324	-32
-310	-24
-310	-22
-304	-20
-302	-16
-302	-22
-296	-16
-310	-16
-326	-10
-342	-2
-346	-2
-356	-6
-348	-10
-334	-6
-328	-4
-324	-8
-322	0
-318	-2
-320	2
-314	6
-314	0
-314	-8
-314	-16
-308	-14
-306	-22
-300	-22
-298	-24
-294	-22
-290	-32
-292	-34
-290	-32
-294	-34
-296	-36
-292	-32
-296	-36
-302	-36
-304	-28
-308	-22
-310	-20
-304	-20
-298	-20
-298	-18
-292	-16
-292	-14
-298	-8
-298	-8
-296	-14
-296	-26
-292	-42
-286	-46
-278	-46
-276	-46
-270	-48
-268	-48
-268	-44
-268	-38
-262	-32
-264	-26
-268	-12
-268	-10
-270	-10
-274	-18
-278	-22
-296	-16
-306	-18
-310	-14
-302	-16
-300	-20
-284	-32
-274	-38
-262	-38
-256	-42
-256	-38
-258	-40
-268	-32
-278	-22
-290	-24
-294	-14
-294	-8
-292	-14
-292	-12
-290	-14
-290	-16
-292	-22
-284	-24
-278	-28
-272	-30
-266	-38
-258	-46
-254	-46
-252	-56
-246	-54
-266	-54
-272	-56
-276	-54
-288	-50
-282	-44
-280	-42
-280	-44
-268	-36
-260	-38
-252	-40
-256	-44
-254	-46
-258	-50
-274	-48
-290	-42
-308	-40
-318	-44
-312	-44
-306	-42
-296	-46
-290	-52
-284	-60
-280	-60
-280	-62
-280	-48
-278	-42
-276	-34
-282	-34
-272	-30
-276	-30
-280	-26
-278	-26
-274	-32
-268	-28
-260	-28
-252	-34
-250	-38
-252	-44
-252	-48
-262	-44
-272	-50
-278	-44
-284	-36
-280	-28
-282	-20
-280	-18
-270	-14
-270	-6
-270	2
-270	4
-258	6
-260	4
-268	6
-272	4
-278	4
-270	2
-270	-6
-264	-4
-258	-6
-256	-8
-258	-8
-258	-8
-266	-4
-270	2
-284	4
-276	2
-276	4
-276	4
-272	8
-266	4
-262	4
-258	2
-252	-2
-250	-6
-250	-8
-252	-12
-254	-8
-270	-6
-276	-6
-280	-10
-280	-10
-272	-12
-270	-12
-274	-10
-270	-8
-274	-4
-270	0
-272	0
-270	-4
-266	-4
-264	-2
-258	-6
-254	-8
-252	-10
-248	-12
-242	-14
-248	-16
-248	-22
-252	-20
-254	-20
-248	-20
-250	-18
-252	-22
-250	-26
-252	-26
-248	-18
-244	-12
-244	-14
-246	-10
-242	2
-244	2
-248	-18
-238	-32
-230	-36
-220	-34
-210	-32
-212	-34
-214	-30
-226	-34
-240	-34
-252	-36
-256	-34
-252	-32
-246	-30
-248	-26
-238	-28
-242	-24
-250	-28
-258	-20
-260	-20
-270	-18
-270	-22
-270	-20
-262	-28
-246	-32
-224	-36
-208	-42
-194	-48
-182	-60
-174	-60
-176	-52
-194	-50
-230	-38
-260	-36
-290	-26
-300	-26
-294	-24
-284	-28
-276	-22
-262	-20
-260	-24
-258	-20
-266	-26
-266	-32
-264	-34
-272	-38
-264	-46
-260	-54
-252	-52
-248	-52
-240	-52
-238	-48
-242	-42
-242	-40
-242	-40
-232	-40
-236	-40
-232	-36
-238	-32
-252	-22
-274	-14
-288	-14
-292	-6
-296	-14
-286	-10
-276	-22
-262	-28
-252	-28
-246	-30
-234	-36
-234	-40
-228	-44
-232	-46
-234	-54
-234	-62
-238	-80
-232	-94
-228	-106
-216	-96
-202	-84
-190	-78
-190	-74
-184	-92
-178	-110
-172	-116
-166	-116
-154	-108
-160	-106
-164	-100
-176	-94
-184	-98
-200	-92
-210	-86
-222	-82
-234	-78
-240	-70
-248	-70
-250	-72
-258	-62
-254	-60
-250	-52
-238	-52
-230	-54
-218	-50
-210	-52
-210	-56
-206	-58
-208	-62
-206	-58
-202	-62
-196	-70
-190	-68
-182	-62
-182	-60
-180	-54
-186	-52
-200	-44
-220	-38
-242	-32
-268	-26
-282	-28
-288	-34
-290	-38
-284	-40
-278	-40
-280	-46
-278	-46
-276	-48
-270	-52
-268	-52
-264	-50
-264	-48
-264	-46
-272	-38
-278	-36
-290	-36
-292	-32
-284	-30
-274	-30
-268	-24
-270	-26
-270	-26
-266	-24
-270	-24
-284	-30
-290	-28
-292	-26
-282	-30
-266	-30
-260	-30
-256	-34
-246	-38
-242	-42
-246	-42
-246	-36
-244	-22
-242	-14
-244	-2
-246	-6
-246	-4
-250	-6
-254	-10
-256	-6
-246	-12
-252	-16
-246	-24
-244	-24
-244	-24
-244	-28
-252	-22
-252	-20
-254	-18
-256	-20
-266	-26
-268	-28
-272	-22
-270	-20
-274	-20
-282	-10
-276	-10
-278	-6
-270	-8
-266	-26
-262	-28
-258	-34
-256	-34
-256	-38
-254	-30
-262	-36
-264	-32
-264	-34
-262	-30
-268	-30
-264	-22
-264	-18
-264	-18
-266	-14
-266	-14
-266	-14
-270	-18
-274	-20
-280	-24
-282	-32
-274	-36
-266	-36
-266	-42
-250	-52
-248	-56
-238	-60
-242	-64
-244	-64
-254	-52
-268	-50
-278	-50
-278	-50
-282	-44
-284	-36
-282	-36
-284	-46
-280	-48
-272	-50
-258	-52
-254	-56
-244	-58
-234	-58
-232	-60
-230	-60
-236	-68
-242	-64
-248	-60
-252	-58
-248	-56
-262	-50
-266	-42
-274	-42
-284	-40
-290	-34
-290	-32
-278	-32
-276	-22
-274	-24
-268	-22
-272	-20
-238	-22
-228	-18
-224	-16
-218	-18
-214	-14
-226	-14
-244	-12
-270	-16
-288	-16
-300	-24
-300	-20
-298	-12
-286	-8
-288	-10
-282	-8
-280	-6
-280	-6
-278	-4
-274	0
-272	-8
-270	-20
-266	-18
-256	-24
-246	-28
-238	-28
-232	-30
-238	-34
-246	-30
-258	-28
-270	-32
-278	-28
-282	-18
-284	-16
-292	-20
-288	-24
-292	-22
-288	-20
-278	-22
-280	-16
-282	-12
-288	-16
-298	-18
-306	-20
-300	-22
-302	-20
-294	-26
-290	-28
-286	-30
-284	-32
-280	-28
-276	-24
-282	-30
-282	-28
-286	-24
-282	-18
-284	-10
-280	-12
-278	0
-278	2
-280	4
-276	2
-270	2
-266	-2
-264	-2
-252	-10
-244	-8
-240	-12
-236	-10
-228	-12
-234	-12
-240	2
-252	4
-270	16
-280	2
-286	-6
-286	-6
-284	-8
-282	-4
-282	-6
-276	-4
-268	-4
-262	-6
-256	-10
-252	-12
-250	-20
-240	-22
-236	-28
-240	-26
-238	-26
-240	-22
-250	-14
-262	-16
-266	-8
-268	-6
-270	-2
-264	-6
-268	2
-266	-8
-260	-8
-268	-4
-260	-4
-260	-4
-260	-8
-254	-12
-248	-24
-232	-26
-234	-18
-232	-26
-238	-20
-248	-10
-258	-10
-272	-8
-280	0
-284	-4
-286	0
-286	4
-286	2
-284	0
-286	0
-280	-2
-276	-10
-274	-16
-270	-14
-268	-20
-262	-22
-252	-24
-250	-28
-240	-30
-230	-34
-226	-32
-218	-30
-212	-30
-212	-32
-212	-24
-224	-20
-238	-8
-256	-6
-266	-4
-274	-6
-280	-2
-286	-4
-292	-10
-292	-6
-286	-14
-274	-26
-262	-30
-260	-34
-254	-38
-252	-34
-266	-22
-276	-12
-294	-6
-302	2
-300	0
-298	0
-290	-4
-280	-2
-272	-10
-274	-10
-282	-12
-292	-12
-296	-22
-292	-20
-288	-20
-282	-28
-272	-26
-268	-26
-264	-22
-262	-28
-256	-32
-256	-26
-264	-22
-270	-8
-274	4
-280	-2
-274	0
-268	-6
-260	-2
-260	-10
-252	-16
-252	-18
-252	-16
-254	-22
-262	-22
-268	-24
-268	-22
-268	-28
-268	-30
-274	-28
-278	-24
-278	-14
-278	-6
-276	-4
-276	-18
-278	-26
-276	-26
-282	-22
-280	-22
-282	-18
-282	-26
-272	-22
-272	-28
-266	-34
-268	-32
-258	-40
-252	-36
-248	-36
-242	-32
-240	-36
-244	-32
-244	-28
-244	-28
-246	-20
-254	-12
-266	-10
-274	-8
-282	-6
-280	-4
-286	-4
-280	-8
-280	-12
-278	-18
-270	-24
-268	-22
-260	-24
-260	-30
-254	-34
-256	-42
-268	-44
-262	-38
-260	-34
-260	-30
-262	-26
-268	-28
-266	-26
-270	-18
-268	-18
-274	-20
-272	-24
-272	-24
-262	-22
-258	-24
-258	-32
-244	-38
-238	-44
-226	-50
-208	-46
-208	-52
-196	-50
-198	-46
-212	-48
-218	-42
-242	-32
-262	-28
-280	-28
-286	-28
-282	-34
-274	-30
-268	-34
-252	-40
-238	-44
-234	-48
-230	-46
-228	-52
-216	-48
-216	-44
-216	-48
-224	-54
-240	-50
-252	-48
-268	-48
-266	-38
-278	-30
-280	-20
-276	-20
-276	-18
-272	-24
-272	-20
-264	-20
-258	-26
-254	-30
-248	-36
-242	-40
-238	-46
-232	-48
-232	-48
-230	-58
-226	-60
-228	-58
-222	-54
-222	-44
-220	-40
-218	-36
-212	-32
-222	-34
-218	-30
-226	-34
-234	-34
-236	-36
-240	-44
-238	-42
-246	-38
-240	-44
-232	-50
-228	-58
-218	-62
-214	-54
-214	-46
-210	-40
-214	-32
-216	-34
-214	-30
-216	-26
-220	-26
-218	-30
-218	-32
-210	-30
-204	-32
-200	-34
-194	-36
-198	-42
-192	-42
-194	-40
-188	-32
-198	-36
-198	-42
-196	-54
-198	-50
-190	-42
-186	-50
-194	-54
-204	-46
-210	-36
-220	-36
-230	-30
-238	-28
-248	-16
-260	-14
-266	-8
-262	-12
-260	-20
-256	-22
-246	-32
-238	-38
-230	-40
-220	-38
-216	-40
-216	-48
-220	-42
-216	-38
-228	-38
-232	-32
-238	-34
-234	-30
-222	-36
-212	-44
-208	-42
-202	-40
-202	-40
-214	-42
-230	-44
-260	-46
-286	-50
-298	-56
-298	-50
-288	-54
-280	-54
-274	-52
-266	-50
-266	-52
-262	-52
-260	-50
-258	-46
-254	-46
-246	-56
-246	-52
-242	-56
-230	-56
-232	-52
-246	-44
-260	-36
-276	-30
-284	-36
-278	-50
-272	-72
-266	-72
-254	-76
-256	-78
-252	-70
-254	-64
-262	-60
-266	-50
-272	-42
-280	-38
-284	-30
-292	-28
-292	-30
-290	-30
-280	-38
-266	-36
-266	-42
-254	-44
-254	-52
-252	-56
-246	-64
-252	-56
-250	-50
-252	-52
-256	-38
-256	-38
-258	-36
-260	-30
-256	-28
-270	-24
-276	-16
-284	-16
-294	-14
-290	-18
-284	-22
-280	-20
-280	-24
-278	-30
-286	-38
-276	-50
-270	-56
-264	-58
-258	-50
-256	-42
-258	-44
-252	-44
-256	-44
-254	-38
-260	-30
-262	-26
-260	-24
-264	-24
-266	-28
-264	-34
-270	-34
-276	-36
-284	-38
-294	-42
-304	-38
-304	-52
-296	-60
-274	-66
-240	-70
-208	-66
-180	-48
-170	-36
-156	-28
-160	-46
-174	-64
-204	-68
-248	-56
-290	-44
-322	-36
-336	-36
-324	-40
-304	-42
-282	-46
-262	-60
-246	-66
-236	-68
-230	-70
-234	-66
-242	-54
-264	-52
-280	-46
-286	-44
-288	-36
-292	-34
-294	-34
-296	-28
-294	-28
-292	-26
-284	-24
-290	-30
-286	-34
-278	-44
-270	-50
-258	-60
-250	-70
-242	-72
-228	-78
-222	-76
-216	-80
-216	-76
-228	-62
-242	-54
-264	-52
-272	-50
-278	-54
-272	-50
-270	-52
-256	-52
-252	-50
-244	-54
-242	-54
-248	-56
-248	-58
-260	-62
-258	-66
-264	-66
-264	-70
-262	-70
-258	-72
-254	-64
-254	-68
-252	-60
-254	-52
-256	-44
-260	-38
-266	-34
-264	-36
-266	-34
-270	-34
-264	-36
-262	-46
-254	-48
-248	-54
-238	-60
-234	-58
-230	-58
-242	-68
-236	-84
-244	-84
-252	-86
-260	-82
-266	-74
-268	-62
-268	-46
-270	-42
-272	-40
-272	-42
-268	-42
-262	-48
-252	-54
-246	-62
-238	-60
-230	-74
-228	-82
-214	-86
-206	-86
-208	-88
-216	-76
-230	-76
-236	-74
-242	-74
-246	-66
-244	-66
-240	-56
-238	-54
-228	-50
-228	-56
-226	-56
-226	-52
-238	-54
-252	-56
-254	-56
-252	-62
-250	-64
-246	-68
-236	-78
-230	-82
-226	-84
-222	-78
-226	-80
-222	-72
-230	-58
-242	-56
-260	-56
-272	-46
-280	-42
-268	-40
-268	-48
-260	-52
-260	-54
-262	-62
-254	-64
-250	-66
-248	-76
-242	-76
-244	-78
-240	-80
-242	-74
-250	-84
-260	-86
-264	-88
-260	-84
-248	-72
-230	-64
-228	-56
-220	-60
-222	-60
-228	-58
-228	-62
-232	-68
-234	-70
-226	-72
-218	-74
-206	-82
-198	-80
-190	-78
-194	-76
-196	-74
-208	-80
-226	-90
-248	-84
-260	-76
-268	-68
-264	-64
-256	-60
-248	-58
-234	-58
-224	-58
-218	-54
-220	-60
-224	-62
-228	-64
-238	-52
-242	-60
-246	-72
-236	-80
-222	-82
-218	-86
-204	-84
-192	-86
-184	-86
-178	-76
-188	-68
-200	-64
-218	-54
-226	-52
-238	-42
-252	-42
-264	-38
-268	-40
-272	-54
-266	-56
-260	-62
-248	-74
-236	-82
-226	-86
-218	-84
-218	-76
-206	-76
-188	-76
-174	-78
-158	-70
-154	-68
-162	-70
-174	-68
-200	-52
-228	-48
-248	-44
-246	-42
-246	-54
-236	-52
-230	-60
-228	-62
-230	-60
-234	-62
-244	-72
-242	-88
-238	-96
-228	-90
-214	-84
-200	-80
-200	-74
-200	-68
-198	-62
-202	-64
-210	-58
-224	-58
-230	-60
-234	-62
-226	-64
-218	-68
-210	-72
-204	-82
-198	-88
-204	-84
-210	-94
-220	-104
-220	-106
-220	-106
-216	-100
-210	-92
-210	-80
-210	-76
-212	-70
-218	-68
-222	-64
-220	-62
-222	-60
-220	-62
-220	-66
-220	-66
-218	-68
-212	-76
-200	-82
-188	-92
-182	-102
-174	-104
-158	-110
-166	-112
-170	-108
-192	-90
-222	-74
-244	-62
-254	-48
-260	-36
-264	-30
-260	-22
-246	-38
-234	-52
-228	-64
-218	-64
-214	-70
-204	-76
-202	-88
-202	-96
-204	-100
-198	-100
-210	-96
-208	-84
-208	-76
-208	-78
-208	-72
-210	-62
-216	-68
-220	-66
-210	-64
-204	-62
-196	-64
-178	-62
-172	-64
-162	-64
-154	-54
-152	-66
-144	-76
-150	-80
-154	-92
-152	-102
-152	-98
-150	-86
-150	-84
-154	-76
-164	-78
-166	-68
-178	-68
-174	-76
-162	-72
-154	-68
-142	-68
-130	-68
-120	-66
-108	-72
-104	-74
-96	-80
-86	-84
-72	-96
-84	-100
-114	-102
-150	-108
-186	-106
-218	-94
-254	-90
-284	-80
-302	-76
-306	-70
-300	-66
-288	-64
-276	-64
-264	-70
-254	-68
-240	-70
-240	-76
-242	-74
-252	-78
-252	-76
-254	-76
-248	-82
-244	-88
-224	-90
-210	-92
-198	-92
-180	-90
-172	-86
-172	-84
-180	-78
-194	-82
-206	-86
-228	-84
-232	-82
-230	-86
-220	-82
-206	-88
-194	-94
-186	-102
-188	-102
-196	-110
-206	-106
-208	-106
-208	-106
-214	-104
-212	-106
-212	-100
-206	-96
-216	-96
-216	-84
-220	-80
-222	-82
-216	-76
-202	-76
-182	-82
-176	-80
-170	-82
-166	-82
-166	-88
-170	-96
-170	-106
-172	-110
-172	-112
-162	-120
-156	-118
-136	-122
-120	-118
-108	-118
-104	-106
-104	-104
-110	-90
-122	-80
-132	-78
-146	-78
-146	-74
-148	-80
-138	-86
-120	-90
-104	-100
-90	-106
-78	-106
-72	-104
-74	-100
-74	-102
-70	-98
-94	-102
-130	-104
-194	-104
-196	-104
-194	-100
-186	-78
-190	-74
-202	-86
-208	-88
-206	-92
-200	-94
-192	-96
-192	-102
-190	-112
-200	-114
-176	-116
-124	-114
-50	-114
30	-114
96	-118
154	-110
182	-106
180	-100
128	-90
50	-84
-36	-76
-136	-84
-240	-78
-342	-84
-420	-82
-462	-82
-464	-86
-426	-90
-352	-100
-270	-106
-208	-104
-182	-114
-194	-124
-214	-130
-226	-126
-210	-124
-188	-110
-182	-106
-188	-100
-198	-98
-202	-88
-200	-92
-200	-84
-200	-82
-210	-94
-214	-102
-220	-114
-230	-112
-244	-114
-262	-114
-276	-114
-282	-114
-260	-112
-238	-110
-210	-110
-184	-108
-168	-106
-150	-112
-142	-102
-160	-98
-184	-98
-222	-96
-262	-94
-286	-92
-300	-88
-310	-92
-308	-98
-314	-104
-310	-108
-294	-110
-260	-106
-232	-104
-212	-116
-192	-126
-184	-124
-186	-108
-186	-106
-186	-102
-184	-104
-184	-106
-188	-104
-182	-96
-172	-94
-166	-96
-160	-102
-172	-104
-188	-112
-208	-116
-224	-116
-244	-116
-250	-124
-236	-136
-216	-140
-194	-138
-170	-136
-146	-130
-134	-126
-106	-122
-60	-112
14	-100
112	-90
224	-84
320	-82
394	-78
446	-78
456	-66
434	-52
380	-56
302	-66
210	-82
102	-96
10	-114
-52	-138
-82	-158
-98	-196
-114	-228
-138	-256
-132	-236
-110	-182
-98	-130
-114	-94
-148	-72
-190	-66
-208	-58
-176	-56
-122	-48
-90	-62
-92	-96
-92	-138
-90	-194
-84	-260
-86	-292
-102	-228
-120	-166
-124	-160
-86	-178
-2	-180
74	-130
92	-70
66	-42
10	-30
-88	-26
-206	-32
-336	-44
-428	-58
-500	-66
-520	-76
-460	-118
-308	-130
-82	-134
136	-122
282	-112
336	-98
300	-84
174	-90
-6	-112
-220	-132
-438	-138
-640	-106
-814	-56
-934	-56
-950	-94
-866	-146
-704	-150
-536	-122
-400	-116
-308	-144
-252	-162
-224	-184
-214	-230
-210	-280
-188	-300
-164	-258
-160	-184
-180	-134
-214	-136
-256	-164
-286	-198
-308	-214
-316	-192
-302	-172
-272	-196
-206	-192
-126	-174
-12	-174
118	-186
240	-196
374	-200
520	-222
672	-244
802	-246
854	-254
796	-230
650	-176
432	-130
170	-98
-112	-88
-392	-102
-626	-126
-762	-158
-786	-116
-732	20
-596	208
-416	298
-202	248
18	118
218	-56
350	-192
406	-244
396	-230
358	-210
254	-212
100	-182
-62	-122
-152	-124
-138	-242
12	-370
248	-436
444	-432
504	-362
386	-262
106	-204
-260	-202
-606	-218
-870	-240
-1044	-250
-1100	-224
-1042	-206
-854	-234
-514	-272
-72	-306
338	-334
578	-364
638	-414
580	-466
478	-432
312	-310
56	-244
-272	-272
-560	-354
-684	-416
-644	-404
-526	-364
-436	-342
-432	-318
-494	-276
-562	-260
-568	-254
-538	-240
-488	-230
-406	-260
-316	-314
-248	-338
-218	-316
-254	-302
-306	-302
-320	-310
-264	-330
-128	-282
48	-256
238	-294
398	-318
518	-302
574	-312
556	-442
454	-628
254	-578
-46	-332
-336	-102
-562	-20
-702	-32
-770	-96
-774	-172
-756	-286
-732	-358
-714	-328
-660	-226
-538	-160
-390	-156
-252	-228
-150	-360
-42	-500
66	-604
144	-588
174	-530
180	-556
246	-482
356	-284
466	-112
496	-60
412	-128
286	-234
166	-340
-8	-362
-276	-262
-570	-146
-744	-112
-796	-134
-822	-192
-874	-250
-832	-258
-632	-212
-356	-180
-134	-198
-36	-232
-30	-236
-70	-230
-88	-236
-90	-298
-126	-404
-190	-478
-226	-406
-230	-288
-244	-210
-344	-190
-490	-216
-552	-252
-454	-200
-294	-94
-220	-38
-314	-74
-500	-224
-656	-358
-680	-410
-618	-350
-484	-280
-280	-256
-26	-236
230	-204
444	-242
576	-312
606	-360
488	-380
244	-418
-74	-362
-418	-262
-732	-184
-940	-164
-950	-196
-808	-226
-578	-222
-368	-212
-218	-190
-166	-144
-192	-160
-236	-252
-238	-306
-148	-326
18	-312
156	-288
166	-278
50	-292
-96	-300
-160	-270
-182	-254
-196	-324
-154	-372
-56	-330
74	-284
220	-312
406	-314
580	-240
686	-178
658	-232
496	-320
202	-332
-146	-292
-388	-254
-412	-268
-344	-256
-320	-248
-412	-290
-648	-284
-958	-242
-1226	-244
-1298	-306
-1018	-342
-398	-344
330	-368
892	-440
1264	-532
1514	-484
1676	-284
1696	-212
1504	-328
1132	-330
496	-162
-352	-6
-1206	34
-1896	-24
-2372	-142
-2576	-256
-2396	-362
-1800	-424
-980	-442
-200	-416
338	-416
570	-414
506	-374
314	-274
42	-198
-242	-188
-392	-200
-410	-252
-306	-330
-82	-382
196	-370
398	-310
468	-258
416	-254
292	-296
130	-348
-50	-396
-192	-410
-252	-372
-288	-396
-404	-476
-550	-442
-668	-332
-690	-280
-630	-274
-496	-324
-322	-414
-154	-544
10	-668
204	-650
404	-412
526	-130
534	0
506	72
524	116
568	44
572	-88
462	-216
212	-310
-30	-334
-222	-334
-432	-278
-524	-238
-424	-176
-306	-158
-330	-216
-392	-216
-302	-204
-94	-230
18	-286
-90	-418
-312	-650
-506	-928
-590	-904
-546	-560
-382	-228
-80	-124
176	-148
236	-136
84	-102
-188	-114
-420	-194
-520	-296
-490	-384
-366	-432
-226	-458
-180	-498
-202	-520
-256	-470
-326	-362
-342	-270
-186	-180
66	-102
222	-86
176	-132
-112	-190
-586	-222
-1098	-304
-1470	-360
-1482	-380
-1114	-430
-638	-422
-248	-310
4	-148
164	-38
250	-28
312	-44
336	-106
366	-220
334	-380
202	-492
38	-464
-100	-352
-218	-234
-260	-126
-172	-62
-24	-72
68	-308
82	-678
14	-974
-80	-1230
-82	-1560
100	-1584
294	-1008
362	-310
376	136
340	286
224	278
50	206
-68	22
-156	-168
-242	-178
-412	-98
-758	-72
-1108	-134
-1272	-192
-1194	-228
-836	-236
-216	-240
498	-240
1078	-244
1336	-256
1148	-268
476	-292
-410	-332
-1004	-326
-1242	-300
-1288	-260
-1196	-228
-1066	-226
-996	-208
-922	-232
-608	-320
40	-354
716	-304
1000	-220
776	-158
192	-160
-484	-198
-930	-222
-1058	-246
-936	-314
-704	-388
-566	-418
-532	-446
-384	-446
-74	-430
296	-394
588	-346
750	-338
848	-314
912	-282
792	-290
402	-358
-170	-410
-776	-422
-1248	-414
-1538	-438
-1560	-470
-1362	-428
-1020	-378
-532	-368
52	-414
602	-424
926	-356
920	-292
592	-260
52	-304
-488	-436
-806	-590
-830	-778
-648	-928
-396	-816
-170	-520
2	-278
164	-150
392	-94
462	-82
314	-74
104	-80
-174	-182
-662	-416
-1266	-676
-1734	-848
-1814	-884
-1426	-718
-804	-380
-102	-26
586	156
1004	138
1080	40
940	-116
742	-144
652	-172
712	-270
764	-396
478	-490
-220	-476
-970	-470
-1346	-468
-1248	-410
-906	-348
-488	-364
-18	-480
390	-486
546	-378
346	-272
-32	-220
-334	-208
-540	-250
-648	-320
-724	-378
-872	-392
-974	-372
-858	-374
-542	-418
-138	-418
218	-416
414	-428
390	-418
256	-430
92	-416
-160	-356
-468	-254
-678	-170
-874	-156
-1094	-226
-1052	-390
-650	-502
-206	-498
114	-442
396	-370
696	-320
938	-324
1036	-308
942	-280
672	-258
170	-270
-406	-264
-762	-250
-934	-360
-1006	-544
-994	-612
-970	-606
-972	-568
-940	-498
-840	-430
-730	-358
-666	-312
-678	-286
-742	-286
-694	-334
-374	-434
102	-496
580	-512
864	-466
838	-418
512	-400
136	-394
-192	-388
-542	-396
-890	-404
-1088	-400
-1036	-398
-798	-406
-504	-416
-316	-394
-184	-342
-22	-296
84	-310
144	-370
280	-442
368	-550
294	-594
130	-562
-124	-468
-592	-370
-1016	-286
-1044	-230
-666	-258
-168	-326
106	-372
122	-340
30	-252
-48	-232
6	-304
58	-376
-114	-458
-272	-520
-68	-380
400	-180
834	-136
994	-258
788	-448
214	-538
-618	-506
-1388	-426
-1820	-378
-1920	-352
-1790	-368
-1520	-394
-1012	-418
-238	-408
464	-382
720	-336
362	-324
-386	-338
-884	-226
-890	-4
-546	150
-34	64
410	-260
672	-628
826	-926
696	-1000
282	-806
-266	-502
-688	-290
-784	-238
-680	-304
-632	-366
-516	-356
-242	-270
44	-182
312	-180
530	-294
574	-380
378	-386
20	-382
-460	-406
-1096	-474
-1608	-558
-1688	-570
-1420	-518
-1016	-442
-656	-368
-338	-330
-20	-346
226	-342
346	-346
444	-408
306	-482
-74	-476
-406	-438
-690	-428
-960	-446
-1234	-458
-1498	-426
-1430	-386
-802	-316
162	-276
1090	-262
1478	-306
964	-396
-98	-498
-900	-588
-1138	-668
-940	-642
-540	-530
-32	-436
432	-390
730	-362
882	-338
814	-326
384	-318
-222	-314
-632	-342
-884	-398
-1150	-444
-1362	-498
-1296	-558
-898	-588
-430	-564
-202	-514
-190	-452
-262	-430
-232	-408
-58	-390
46	-350
-152	-302
-516	-244
-798	-248
-806	-304
-586	-352
-266	-428
38	-504
170	-526
70	-476
-186	-402
-410	-360
-396	-386
-116	-460
188	-528
310	-538
276	-504
200	-440
202	-358
246	-280
354	-278
566	-316
750	-334
778	-352
436	-388
-314	-392
-1020	-402
-1332	-412
-1336	-414
-1124	-400
-752	-326
-314	-312
130	-402
366	-454
352	-430
228	-388
-4	-366
-304	-366
-446	-372
-320	-384
24	-380
424	-404
454	-434
-178	-406
-1018	-390
-1680	-390
-2010	-394
-1810	-386
-1248	-412
-588	-454
-66	-460
272	-426
530	-360
596	-338
390	-396
20	-448
-348	-462
-546	-456
-536	-440
-432	-460
-334	-542
-200	-556
-78	-506
12	-452
-48	-412
-338	-374
-712	-346
-1024	-326
-1190	-328
-1220	-338
-1218	-382
-1002	-460
-468	-558
204	-580
806	-524
1112	-424
934	-352
402	-350
-320	-404
-1058	-428
-1506	-438
-1468	-444
-1076	-432
-600	-428
-210	-458
42	-504
214	-538
318	-498
380	-416
228	-356
-158	-350
-556	-358
-760	-346
-598	-336
-216	-342
104	-330
374	-274
620	-222
696	-236
544	-334
138	-404
-410	-446
-844	-508
-984	-550
-896	-520
-654	-470
-416	-436
-266	-420
-174	-412
-22	-384
164	-358
302	-336
302	-334
98	-378
-234	-402
-394	-402
-416	-430
-418	-456
-388	-446
-188	-408
154	-398
252	-418
-142	-458
-866	-492
-1604	-470
-1878	-418
-1526	-400
-866	-380
-232	-362
200	-396
386	-428
382	-420
262	-392
72	-384
2	-410
276	-414
760	-394
994	-398
500	-408
-554	-402
-1258	-408
-1142	-456
-594	-478
-274	-436
-318	-412
-538	-418
-750	-438
-786	-460
-666	-450
-544	-420
-590	-398
-858	-406
-1144	-448
-1220	-474
-872	-482
-142	-490
612	-448
1076	-342
1066	-274
670	-298
124	-342
-516	-376
-1134	-414
-1600	-472
-1886	-520
-1876	-548
-1516	-532
-912	-512
-238	-480
306	-434
610	-396
682	-368
666	-388
694	-412
814	-462
1020	-490
1204	-470
1160	-486
714	-502
24	-486
-618	-464
-1002	-448
-1054	-418
-1006	-406
-1084	-402
-1260	-388
-1436	-374
-1382	-360
-1024	-380
-558	-444
-144	-486
122	-476
170	-446
60	-462
-52	-518
-60	-528
-70	-446
-78	-322
20	-206
132	-196
226	-306
256	-400
24	-446
-476	-472
-844	-478
-888	-420
-834	-342
-874	-312
-1176	-376
-1580	-470
-1648	-486
-1300	-440
-834	-436
-488	-490
-234	-510
84	-494
468	-462
780	-382
824	-296
564	-292
108	-370
-368	-446
-692	-484
-796	-454
-716	-422
-466	-438
-76	-438
234	-416
246	-418
-18	-466
-322	-460
-468	-430
-410	-440
-272	-444
-234	-420
-404	-424
-614	-456
-678	-460
-704	-434
-702	-432
-592	-460
-456	-448
-264	-398
-74	-348
-104	-346
-360	-342
-726	-370
-994	-394
-1036	-398
-774	-418
-308	-482
104	-538
244	-566
76	-540
-272	-504
-554	-484
-664	-474
-638	-486
-544	-524
-400	-506
-232	-430
-14	-352
336	-352
676	-346
710	-346
398	-348
-50	-338
-386	-342
-492	-362
-482	-368
-562	-388
-900	-466
-1328	-554
-1542	-598
-1444	-596
-1136	-582
-710	-544
-272	-502
62	-462
218	-420
202	-366
-30	-344
-352	-388
-562	-464
-766	-526
-880	-548
-678	-530
-206	-494
310	-430
670	-398
784	-388
506	-362
-186	-344
-1076	-376
-1698	-416
-1792	-456
-1392	-460
-788	-438
-344	-486
-124	-518
-32	-484
26	-434
46	-416
42	-440
62	-442
116	-410
240	-372
378	-352
354	-348
232	-378
188	-434
20	-462
-460	-406
-1072	-324
-1692	-362
-2084	-454
-1970	-522
-1434	-544
-792	-532
-350	-550
-194	-572
-198	-550
-308	-516
-460	-458
-466	-330
-264	-194
90	-126
558	-182
846	-242
488	-304
-468	-402
-1338	-492
-1716	-546
-1522	-552
-1068	-544
-706	-564
-484	-570
-258	-532
-30	-490
48	-448
-62	-404
-158	-394
-132	-416
36	-410
256	-368
322	-398
122	-468
-400	-514
-1100	-554
-1572	-540
-1578	-504
-1254	-452
-788	-426
-246	-456
336	-476
790	-438
862	-378
526	-334
26	-320
-358	-342
-474	-374
-430	-402
-384	-426
-382	-424
-430	-412
-572	-408
-822	-424
-1136	-460
-1350	-470
-1276	-472
-848	-454
-136	-400
486	-358
660	-344
436	-358
-12	-392
-496	-404
-714	-394
-848	-402
-1052	-432
-1140	-488
-1064	-510
-890	-494
-700	-476
-650	-506
-662	-506
-528	-468
-216	-406
218	-352
638	-338
884	-348
844	-350
478	-356
-100	-360
-546	-368
-804	-372
-996	-424
-1068	-484
-1010	-504
-960	-560
-938	-610
-786	-600
-588	-546
-506	-506
-448	-494
-392	-484
-356	-476
-392	-458
-506	-490
-522	-524
-346	-506
-278	-470
-518	-424
-816	-382
-906	-386
-672	-394
-156	-366
420	-328
616	-372
152	-454
-612	-484
-1134	-446
-1210	-408
-1002	-370
-666	-346
-352	-316
-188	-292
-284	-278
-586	-296
-746	-336
-660	-374
-484	-408
-348	-408
-378	-392
-648	-392
-1030	-402
-1168	-420
-838	-448
-208	-458
294	-446
372	-438
48	-442
-420	-476
-652	-504
-614	-486
-560	-444
-590	-400
-706	-434
-772	-502
-672	-518
-460	-496
-264	-438
-130	-434
-84	-410
-176	-382
-438	-424
-642	-492
-634	-524
-402	-484
-94	-426
86	-378
56	-344
-232	-332
-606	-338
-826	-364
-784	-404
-634	-432
-586	-426
-714	-408
-978	-408
-1156	-434
-1080	-452
-732	-454
-158	-452
416	-458
640	-458
392	-424
-144	-400
-610	-412
-816	-480
-872	-508
-962	-496
-932	-466
-668	-400
-226	-302
80	-234
78	-240
-166	-288
-538	-306
-920	-294
-1266	-308
-1464	-406
-1424	-506
-1260	-554
-1094	-552
-900	-558
-632	-556
-350	-510
-122	-490
46	-502
144	-516
196	-488
246	-420
210	-354
-24	-320
-408	-312
-812	-312
-930	-320
-602	-342
-66	-380
222	-392
106	-366
-204	-368
-524	-364
-866	-390
-1122	-424
-1260	-442
-1290	-454
-1204	-470
-1064	-474
-922	-476
-774	-470
-650	-464
-542	-440
-358	-412
-16	-392
434	-374
784	-368
814	-372
478	-388
4	-402
-280	-414
-276	-400
-138	-344
-66	-298
-210	-308
-548	-360
-756	-412
-676	-434
-456	-456
-322	-498
-374	-496
-654	-442
-1098	-402
-1542	-372
-1756	-380
-1596	-416
-1178	-468
-754	-504
-552	-516
-556	-506
-516	-478
-370	-438
-226	-380
-162	-362
-298	-370
-584	-400
-716	-408
-734	-404
-706	-406
-652	-430
-632	-456
-668	-422
-682	-372
-536	-352
-154	-378
316	-418
556	-426
458	-418
92	-428
-382	-388
-786	-332
-1010	-410
-1074	-488
-964	-510
-768	-498
-650	-480
-600	-506
-416	-526
-198	-506
-130	-484
-224	-478
-368	-420
-540	-354
-578	-334
-392	-342
-124	-362
-26	-342
-230	-314
-620	-316
-842	-368
-788	-408
-556	-412
-306	-406
-162	-406
-126	-412
-176	-428
-290	-436
-462	-430
-578	-420
-568	-416
-516	-420
-524	-404
-594	-366
-636	-320
-502	-328
-232	-330
12	-304
190	-334
202	-420
-144	-460
-660	-438
-1232	-398
-1822	-332
-2214	-314
-2196	-404
-1778	-460
-1096	-450
-250	-436
458	-460
668	-458
416	-394
-66	-314
-534	-318
-844	-374
-924	-416
-892	-440
-884	-452
-826	-444
-568	-440
-60	-442
472	-460
776	-452
672	-422
142	-412
-532	-420
-1124	-422
-1520	-412
-1560	-388
-1190	-372
-672	-338
-332	-328
-338	-304
-546	-272
-616	-278
-424	-332
-144	-386
-38	-422
-272	-430
-724	-416
-1058	-394
-1118	-428
-926	-456
-720	-438
-656	-428
-600	-444
-390	-454
-78	-450
192	-472
414	-452
496	-400
382	-356
190	-342
-54	-330
-302	-314
-516	-316
-720	-314
-808	-302
-776	-308
-784	-382
-1028	-464
-1498	-476
-1824	-490
-1712	-512
-1306	-496
-906	-458
-564	-408
-342	-380
-172	-380
36	-356
106	-358
-48	-382
-320	-402
-660	-410
-1030	-410
-1104	-408
-694	-400
-42	-370
484	-370
704	-384
568	-394
196	-404
-198	-388
-588	-368
-1028	-390
-1512	-436
-1814	-502
-1738	-548
-1340	-528
-842	-492
-408	-492
-104	-480
106	-408
244	-344
248	-330
68	-378
-288	-422
-726	-396
-1134	-332
-1362	-274
-1420	-262
-1330	-320
-986	-404
-574	-470
-344	-492
-180	-488
30	-458
248	-422
398	-396
418	-364
372	-326
310	-324
58	-332
-504	-344
-1036	-360
-1214	-380
-986	-406
-506	-416
-136	-398
-178	-362
-586	-304
-1100	-268
-1606	-344
-1892	-494
-1754	-542
-1292	-532
-740	-516
-302	-516
-98	-478
-104	-418
-258	-376
-464	-354
-636	-332
-760	-302
-706	-268
-416	-270
-176	-296
-276	-336
-618	-402
-786	-394
-514	-298
4	-218
350	-248
360	-376
38	-474
-420	-512
-820	-486
-1120	-450
-1242	-404
-1128	-398
-824	-404
-486	-410
-280	-412
-328	-436
-634	-462
-1048	-472
-1332	-472
-1312	-502
-1024	-508
-710	-482
-514	-452
-380	-436
-212	-426
-50	-398
-68	-382
-342	-358
-720	-360
-872	-390
-716	-430
-408	-446
-74	-442
258	-412
462	-406
470	-440
358	-432
134	-402
-190	-368
-466	-338
-650	-324
-724	-310
-788	-326
-816	-342
-726	-358
-652	-398
-630	-440
-590	-464
-522	-492
-400	-494
-272	-464
-190	-450
-262	-422
-574	-384
-1036	-380
-1444	-394
-1608	-422
-1428	-460
-1004	-454
-572	-380
-310	-308
-290	-278
-398	-272
-556	-306
-678	-378
-448	-440
-120	-456
-110	-496
-410	-548
-810	-550
-1192	-512
-1410	-482
-1324	-452
-1014	-418
-680	-430
-490	-480
-384	-526
-204	-538
66	-506
262	-450
220	-406
60	-366
-8	-338
-14	-290
-142	-258
-328	-260
-488	-272
-554	-292
-430	-336
-306	-406
-362	-456
-598	-448
-936	-422
-1196	-412
-1244	-402
-1094	-390
-948	-418
-870	-466
-782	-480
-778	-440
-846	-390
-888	-354
-810	-310
-526	-298
-158	-324
154	-362
384	-404
402	-464
46	-514
-430	-530
-770	-520
-898	-494
-784	-464
-470	-424
-102	-400
98	-396
-66	-382
-548	-332
-1104	-324
-1530	-314
-1650	-292
-1406	-312
-964	-402
-540	-468
-266	-500
-142	-504
-152	-500
-368	-476
-632	-446
-816	-466
-814	-490
-704	-470
-538	-406
-258	-354
184	-380
656	-422
860	-416
718	-434
300	-406
-446	-358
-1200	-374
-1690	-418
-1804	-444
-1556	-434
-1196	-448
-922	-474
-782	-468
-756	-456
-766	-448
-726	-426
-632	-414
-570	-416
-608	-410
-720	-392
-742	-364
-540	-356
-250	-382
-164	-452
-354	-498
-644	-470
-842	-442
-780	-460
-420	-466
46	-442
380	-408
536	-378
456	-390
80	-408
-452	-418
-998	-438
-1400	-472
-1536	-502
-1416	-512
-1146	-494
-836	-480
-558	-496
-348	-492
-244	-446
-282	-432
-396	-436
-478	-426
-436	-390
-178	-348
220	-336
568	-336
726	-356
560	-398
-34	-478
-766	-520
-1292	-500
-1580	-456
-1680	-436
-1612	-438
-1350	-432
-958	-398
-540	-338
-202	-290
-14	-354
64	-448
66	-462
-12	-424
-154	-426
-348	-460
-542	-480
-658	-442
-708	-378
-744	-288
-866	-240
-1032	-298
-1010	-426
-712	-490
-292	-460
154	-384
420	-326
264	-322
-204	-374
-682	-424
-1020	-458
-1222	-470
-1338	-488
-1372	-486
-1356	-468
-1240	-440
-986	-398
-610	-360
-244	-336
-68	-324
-102	-356
-192	-448
-238	-494
-222	-480
-238	-454
-318	-468
-414	-494
-532	-496
-714	-468
-856	-422
-818	-380
-532	-352
-42	-336
360	-310
408	-320
76	-368
-482	-406
-1008	-436
-1270	-494
-1222	-542
-1008	-560
-774	-530
-580	-464
-458	-434
-378	-418
-420	-382
-604	-320
-880	-304
-1102	-338
-1184	-384
-1048	-416
-780	-442
-472	-438
-238	-432
-132	-418
-118	-400
-170	-388
-330	-384
-578	-392
-810	-402
-882	-406
-584	-450
42	-454
656	-402
980	-370
818	-368
206	-368
-492	-360
-1014	-344
-1424	-348
-1680	-392
-1676	-442
-1438	-468
-1134	-460
-916	-452
-786	-436
-694	-412
-634	-394
-620	-380
-666	-386
-726	-436
-822	-484
-902	-448
-780	-364
-374	-326
184	-350
620	-366
634	-340
370	-308
168	-308
100	-316
66	-312
-180	-380
-736	-460
-1316	-508
-1552	-506
-1450	-476
-1218	-448
-956	-434
-754	-452
-650	-454
-638	-436
-700	-404
-812	-388
-854	-366
-684	-352
-324	-364
6	-382
80	-386
-202	-384
-568	-374
-744	-372
-712	-370
-618	-380
-510	-388
-464	-388
-408	-386
-218	-412
28	-460
82	-516
-162	-540
-504	-542
-808	-530
-1028	-504
-1116	-448
-1172	-398
-1160	-374
-1052	-368
-862	-348
-674	-326
-590	-320
-570	-346
-464	-376
-296	-396
-160	-406
-144	-410
-208	-408
-222	-370
-98	-328
82	-354
154	-444
-60	-480
-602	-462
-1210	-460
-1458	-464
-1302	-464
-992	-448
-672	-422
-386	-394
-148	-388
-46	-378
-158	-362
-398	-368
-604	-424
-720	-456
-786	-440
-910	-422
-1004	-414
-978	-366
-880	-332
-708	-358
-530	-400
-440	-398
-432	-368
-498	-376
-594	-388
-688	-386
-808	-406
-866	-454
-784	-490
-608	-462
-410	-404
-222	-346
-46	-346
146	-394
330	-436
324	-438
34	-424
-398	-400
-802	-418
-1066	-454
-1074	-468
-842	-454
-520	-428
-374	-402
-540	-374
-854	-348
-1170	-348
-1222	-352
-800	-352
-162	-320
334	-304
454	-322
166	-348
-202	-376
-480	-396
-678	-420
-782	-444
-916	-458
-1118	-464
-1282	-474
-1344	-496
-1242	-488
-930	-462
-492	-430
-100	-404
68	-384
-56	-378
-360	-372
-616	-404
-716	-422
-722	-386
-664	-314
-550	-278
-446	-324
-394	-410
-422	-430
-488	-386
-518	-322
-440	-290
-344	-318
-374	-356
-572	-380
-762	-418
-822	-420
-822	-406
-784	-390
-740	-376
-668	-370
-536	-378
-344	-350
-138	-326
-2	-360
-20	-410
-230	-418
-598	-364
-1128	-304
-1520	-340
-1506	-404
-1308	-430
-1280	-444
-1348	-478
-1226	-520
-886	-528
-506	-522
-272	-484
-214	-426
-264	-386
-260	-384
-174	-372
-100	-308
-86	-268
-228	-294
-478	-358
-620	-396
-622	-398
-562	-390
-530	-392
-626	-410
-842	-418
-1082	-408
-1188	-380
-1048	-406
-726	-440
-418	-424
-206	-384
-18	-338
194	-338
398	-344
598	-334
622	-342
268	-388
-352	-436
-920	-440
-1288	-416
-1396	-390
-1216	-378
-868	-344
-592	-314
-588	-338
-856	-340
-1054	-344
-864	-374
-366	-418
122	-456
318	-452
82	-430
-368	-412
-688	-384
-916	-354
-1186	-344
-1402	-356
-1528	-370
-1564	-386
-1510	-400
-1260	-406
-830	-400
-340	-378
150	-350
518	-338
590	-334
322	-376
-230	-440
-852	-492
-1296	-508
-1476	-478
-1424	-436
-1234	-396
-1022	-360
-926	-320
-988	-324
-1088	-366
-1060	-400
-866	-408
-574	-380
-234	-358
14	-392
100	-446
78	-480
20	-470
-4	-430
76	-412
134	-412
-4	-424
-332	-410
-644	-390
-758	-378
-688	-364
-556	-328
-512	-322
-682	-344
-836	-318
-840	-276
-736	-264
-604	-294
-496	-338
-570	-372
-798	-394
-1066	-420
-1226	-424
-1124	-426
-810	-454
-468	-492
-220	-476
-106	-440
-86	-428
-84	-402
-96	-394
-126	-380
-254	-366
-560	-358
-898	-356
-1148	-390
-1260	-416
-1246	-412
-1164	-412
-1040	-414
-914	-412
-842	-414
-832	-408
-800	-414
-680	-454
-484	-456
-284	-402
-94	-374
52	-384
2	-384
-218	-366
-410	-366
-478	-368
-478	-360
-606	-334
-910	-300
-1208	-298
-1164	-304
-648	-320
28	-324
310	-352
-106	-378
-922	-422
-1458	-458
-1514	-476
-1188	-484
-730	-474
-426	-458
-348	-414
-400	-370
-444	-358
-432	-366
-414	-380
-436	-390
-436	-360
-340	-320
-162	-300
-50	-302
-48	-314
-212	-344
-512	-358
-840	-386
-1120	-428
-1288	-446
-1338	-462
-1220	-498
-978	-552
-786	-552
-750	-500
-830	-428
-908	-382
-646	-340
20	-290
676	-210
924	-134
622	-126
-10	-160
-602	-228
-970	-374
-1142	-490
-1202	-504
-1180	-508
-1134	-478
-1026	-408
-762	-380
-396	-398
-172	-422
-278	-452
-646	-476
-976	-452
-1188	-392
-1326	-356
-1288	-342
-1046	-312
-766	-240
-590	-182
-536	-188
-552	-228
-484	-284
-368	-348
-332	-392
-442	-406
-574	-432
-542	-436
-414	-442
-262	-450
-108	-388
-6	-334
-18	-348
-150	-396
-236	-428
-226	-412
-260	-384
-332	-362
-462	-344
-698	-340
-1022	-348
-1328	-372
-1386	-404
-1200	-420
-902	-456
-630	-482
-466	-494
-394	-468
-348	-416
-370	-368
-478	-356
-550	-370
-588	-356
-760	-320
-1012	-342
-1146	-366
-1064	-382
-688	-392
-140	-368
322	-318
494	-256
388	-216
130	-210
-84	-280
-132	-360
-156	-404
-306	-404
-544	-386
-684	-368
-682	-358
-714	-360
-876	-370
-1146	-376
-1380	-378
-1418	-382
-1320	-382
-1056	-354
-626	-306
-186	-298
112	-318
158	-312
-76	-296
-504	-296
-940	-352
-1230	-398
-1300	-420
-1240	-456
-1126	-480
-902	-460
-674	-436
-556	-402
-446	-332
-240	-268
-24	-266
44	-294
-166	-310
-534	-332
-742	-350
-646	-342
-374	-326
-254	-360
-470	-406
-870	-412
-1174	-394
-1254	-356
-1038	-322
-652	-328
-420	-374
-424	-420
-444	-458
-290	-448
-38	-384
142	-318
96	-272
-244	-268
-722	-310
-1176	-332
-1550	-346
-1654	-356
-1426	-346
-970	-302
-472	-290
-150	-286
-82	-288
-126	-306
-70	-318
168	-302
486	-292
684	-308
436	-336
-302	-366
-1080	-358
-1594	-382
-1776	-414
-1638	-454
-1318	-458
-922	-436
-626	-404
-442	-370
-356	-338
-344	-314
-406	-292
-534	-270
-760	-266
-1014	-304
-978	-374
-684	-418
-424	-438
-232	-430
6	-390
238	-332
364	-280
278	-314
-34	-400
-376	-428
-594	-374
-700	-354
-726	-360
-726	-338
-684	-318
-558	-300
-424	-280
-486	-260
-824	-260
-1198	-276
-1362	-306
-1170	-380
-784	-444
-506	-480
-524	-470
-738	-428
-906	-384
-844	-362
-584	-344
-242	-346
36	-366
190	-384
276	-356
278	-316
136	-288
-184	-292
-574	-304
-840	-296
-916	-258
-816	-228
-418	-244
132	-302
460	-358
384	-378
-92	-374
-738	-410
-1122	-474
-1110	-480
-848	-454
-580	-424
-428	-378
-360	-328
-370	-282
-506	-264
-700	-258
-820	-270
-808	-298
-686	-286
-576	-250
-538	-228
-532	-234
-520	-246
-564	-286
-716	-332
-852	-366
-810	-386
-668	-426
-592	-428
-630	-404
-660	-350
-554	-318
-400	-278
-202	-230
-8	-188
126	-134
86	-144
-60	-258
-136	-362
-142	-404
-202	-410
-348	-404
-522	-390
-658	-360
-854	-320
-1122	-294
-1202	-300
-1036	-312
-862	-296
-920	-284
-1174	-284
-1356	-310
-1228	-328
-908	-328
-568	-338
-206	-336
226	-332
642	-344
842	-340
628	-350
42	-368
-582	-386
-1000	-346
-1118	-310
-966	-314
-728	-330
-668	-352
-914	-374
-1270	-354
-1410	-320
-1304	-314
-1098	-282
-866	-222
-632	-184
-476	-180
-376	-204
-310	-262
-222	-336
-114	-360
-30	-334
60	-288
196	-278
356	-290
440	-284
374	-258
160	-222
-32	-230
-94	-262
-146	-306
-338	-316
-564	-260
-794	-188
-1058	-166
-1468	-230
-2018	-308
-2428	-350
-2460	-348
-2084	-336
-1424	-380
-762	-404
-324	-398
-74	-372
162	-302
452	-170
812	-62
1064	-36
1104	-96
796	-204
-42	-330
-1028	-426
-1586	-464
-1694	-452
-1504	-408
-1188	-358
-966	-312
-946	-270
-1072	-268
-1134	-306
-918	-324
-540	-272
-190	-258
138	-306
480	-340
676	-338
572	-312
156	-284
-324	-276
-596	-294
-608	-290
-518	-306
-506	-316
-548	-318
-534	-334
-454	-394
-260	-406
-16	-340
98	-256
48	-186
-148	-162
-482	-134
-886	-88
-1242	-102
-1366	-180
-1234	-274
-1000	-330
-712	-348
-370	-318
122	-262
686	-178
1120	-108
1236	-104
684	-240
-518	-388
-1496	-406
-1764	-334
-1512	-272
-1154	-258
-926	-278
-844	-276
-770	-258
-730	-256
-854	-280
-1216	-360
-1560	-410
-1426	-332
-630	-262
444	-264
1080	-274
914	-272
160	-252
-574	-226
-948	-212
-1102	-266
-1234	-308
-1176	-274
-900	-240
-614	-286
-438	-334
-358	-358
-334	-332
-252	-262
10	-186
360	-172
442	-190
30	-246
-646	-288
-1146	-298
-1258	-290
-1034	-276
-768	-258
-704	-272
-752	-306
-818	-318
-978	-296
-1148	-268
-1106	-266
-742	-286
-208	-254
222	-184
504	-156
762	-182
1106	-196
1382	-194
1352	-246
894	-300
-134	-306
-1416	-322
-2286	-326
-2492	-320
-2102	-298
-1406	-280
-752	-278
-352	-268
-180	-240
-16	-220
264	-208
594	-216
688	-238
244	-242
-532	-248
-1032	-236
-1214	-196
-1162	-198
-718	-260
40	-264
714	-232
870	-202
398	-212
-244	-212
-622	-218
-838	-206
-1132	-196
-1440	-216
-1422	-236
-1002	-252
-618	-264
-664	-298
-916	-320
-924	-304
-696	-340
-398	-446
-144	-482
-42	-438
-6	-368
56	-288
152	-200
254	-132
344	-116
316	-146
158	-158
-92	-146
-450	-130
-812	-134
-1110	-154
-1300	-176
-1334	-148
-1190	-66
-860	-14
-578	-50
-468	-160
-374	-272
-124	-352
338	-372
892	-348
1242	-298
1186	-250
630	-230
-358	-254
-1358	-300
-1994	-338
-2194	-340
-1980	-330
-1520	-342
-1042	-332
-748	-270
-634	-204
-640	-156
-778	-116
-932	-82
-970	-98
-860	-222
-484	-346
182	-408
878	-426
1268	-422
1176	-386
678	-322
10	-244
-734	-216
-1398	-246
-1738	-260
-1666	-242
-1304	-222
-842	-182
-342	-148
206	-138
666	-122
950	-82
1000	-94
794	-164
480	-196
94	-194
-518	-202
-1164	-218
-1498	-250
-1442	-276
-1122	-248
-814	-186
-798	-166
-1074	-174
-1420	-194
-1430	-222
-858	-216
-94	-218
358	-254
380	-310
82	-332
-232	-288
-334	-214
-236	-164
-96	-144
-194	-154
-584	-188
-906	-234
-924	-254
-684	-266
-418	-298
-290	-300
-274	-268
-358	-254
-560	-260
-678	-238
-572	-214
-334	-178
-82	-144
128	-130
220	-148
90	-160
-206	-168
-384	-168
-274	-194
-56	-190
-28	-156
-278	-186
-686	-240
-1288	-260
-1968	-300
-2294	-316
-2096	-250
-1470	-152
-600	-56
284	-34
936	-60
1126	-66
756	-72
-8	-126
-824	-160
-1394	-156
-1674	-198
-1534	-250
-932	-242
-204	-212
334	-190
500	-184
314	-196
-64	-224
-482	-264
-744	-306
-806	-374
-702	-430
-462	-458
-256	-450
-328	-382
-658	-328
-1034	-286
-1246	-240
-1142	-182
-786	-108
-380	-94
-152	-152
-130	-198
-254	-206
-378	-218
-402	-242
-302	-300
-184	-374
-130	-406
-148	-380
-180	-354
-238	-320
-314	-256
-334	-172
-266	-92
-136	-50
-66	-60
-134	-102
-384	-142
-650	-154
-684	-178
-292	-166
388	-120
932	-78
996	-118
436	-158
-550	-118
-1488	-38
-2144	22
-2282	70
-1940	156
-1400	186
-856	74
-488	-78
-308	-236
-282	-382
-288	-416
-212	-352
20	-258
396	-214
804	-202
1124	-172
1232	-140
1034	-108
632	-116
32	-168
-748	-250
-1420	-318
-1770	-346
-1782	-336
-1516	-290
-1112	-224
-802	-180
-710	-166
-742	-134
-854	-92
-1098	-14
-1264	24
-1108	16
-774	-54
-552	-184
-374	-332
-280	-448
-290	-496
-368	-400
-418	-296
-366	-218
-204	-88
-22	52
110	136
162	130
148	96
180	54
156	24
-166	14
-616	36
-888	34
-962	-14
-958	-60
-1014	-50
-1144	-34
-1176	-34
-1036	-82
-790	-162
-654	-240
-810	-280
-1068	-310
-1162	-278
-1100	-174
-964	-48
-750	62
-482	124
-310	42
-238	-80
-222	-106
-198	-100
-96	-202
16	-310
70	-286
58	-188
-48	-92
-198	-62
-244	-98
-284	-142
-400	-196
-564	-242
-732	-260
-776	-258
-774	-232
-838	-184
-696	-130
-178	-66
420	10
616	-58
228	-250
-320	-340
-450	-278
-210	-170
-168	-40
-662	14
-1454	-6
-1934	-82
-1740	-140
-1182	-170
-800	-194
-714	-246
-678	-274
-514	-284
-244	-284
12	-282
126	-280
90	-270
-20	-198
-38	-48
134	32
350	-36
416	-118
186	-138
-264	-134
-476	-136
-290	-134
-12	-116
-134	-166
-686	-222
-1278	-228
-1638	-216
-1752	-202
-1748	-170
-1690	-104
-1472	-62
-1048	-114
-664	-194
-512	-226
-748	-220
-1180	-194
-1268	-156
-848	-132
-162	-132
540	-142
1012	-126
1148	-90
1016	-38
570	2
-142	-14
-744	-82
-1098	-144
-1430	-200
-1714	-250
-1752	-286
-1466	-290
-908	-260
-316	-236
56	-258
58	-256
-212	-206
-534	-200
-668	-220
-512	-178
-162	-90
248	-14
606	-26
776	-86
686	-152
352	-212
-158	-238
-644	-230
-934	-190
-994	-144
-922	-106
-912	-82
-1138	-62
-1588	-54
-2016	-84
-2128	-140
-1752	-166
-990	-144
-252	-102
140	-74
210	-90
130	-134
18	-176
-46	-184
-48	-166
-78	-140
-160	-128
-242	-104
-296	-106
-378	-132
-500	-144
-638	-132
-688	-96
-454	-86
-10	-102
356	-106
504	-90
330	-100
-128	-100
-616	-114
-786	-116
-636	-90
-656	-60
-1070	-68
-1536	-108
-1826	-174
-1982	-254
-1914	-294
-1474	-300
-842	-288
-284	-282
180	-238
514	-164
628	-148
544	-132
284	-98
-268	-38
-934	-8
-1366	-60
-1424	-138
-1164	-172
-720	-160
-316	-198
-106	-228
-32	-190
-4	-148
-38	-178
-78	-264
-122	-278
-342	-232
-796	-188
-1340	-160
-1642	-116
-1524	-78
-1088	-74
-534	-88
-20	-74
368	-72
594	-70
510	-70
62	-80
-422	-66
-618	-36
-482	4
-154	8
138	-38
106	-146
-178	-232
-430	-236
-562	-148
-532	-16
-466	78
-564	88
-872	26
-1274	-64
-1634	-134
-1738	-168
-1604	-168
-1400	-208
-1118	-224
-812	-134
-544	-14
-276	60
110	72
646	44
912	-8
632	-78
-8	-160
-554	-226
-742	-214
-754	-194
-770	-196
-842	-164
-934	-96
-1092	-70
-1188	-62
-1012	-46
-560	-66
86	-104
696	-112
1014	-56
748	-18
16	-32
-502	-94
-534	-152
-330	-178
-220	-168
-364	-142
-718	-144
-1070	-154
-1282	-132
-1270	-86
-1060	-14
-742	38
-462	-40
-384	-138
-478	-156
-702	-134
-822	-138
-648	-156
-376	-142
-276	-106
-462	-60
-814	-66
-966	-124
-742	-132
-394	-96
-94	-50
162	2
396	54
510	78
440	64
170	18
-426	-104
-1202	-226
-1726	-276
-1760	-230
-1454	-190
-1002	-188
-610	-174
-366	-120
-294	-66
-358	-44
-420	-56
-386	-36
-308	2
-248	18
-212	-4
-168	-4
-170	30
-144	42
-62	32
-62	44
-182	6
-218	-134
-226	-244
-246	-228
-312	-166
-566	-136
-958	-98
-1216	-64
-1114	-48
-720	-40
-288	-38
30	-16
118	2
-82	-38
-516	-100
-1088	-132
-1582	-142
-1790	-114
-1636	-100
-1132	-126
-500	-106
-50	-52
184	16
336	68
390	76
294	36
228	8
376	-2
560	-8
556	-34
248	-74
-508	-116
-1414	-132
-1946	-122
-1990	-112
-1778	-114
-1368	-122
-858	-102
-468	-60
-272	-40
-202	-40
-314	-28
-560	10
-786	60
-914	90
-836	40
-558	-6
-252	-14
-44	-24
0	-10
-160	-14
-406	-84
-522	-146
-346	-170
78	-168
532	-130
802	-94
758	-66
468	-46
76	-38
-410	-48
-914	-110
-1196	-138
-1198	-98
-1108	-50
-1144	16
-1278	66
-1274	94
-998	122
-574	140
-314	104
-404	-26
-598	-202
-638	-306
-610	-276
-650	-204
-766	-132
-796	-108
-616	-100
-276	-66
36	-32
112	-16
-108	-28
-396	-32
-532	-6
-474	22
-380	34
-384	28
-412	-2
-472	-64
-556	-96
-580	-88
-548	-70
-502	-68
-348	-70
-150	-96
-70	-116
-184	-66
-436	18
-690	108
-808	164
-718	138
-476	90
-234	52
-166	2
-270	-48
-410	-100
-462	-114
-342	-122
-84	-108
168	-74
260	-26
-68	0
-764	-38
-1384	-80
-1532	-98
-1216	-118
-792	-128
-638	-128
-726	-114
-902	-64
-1104	-26
-1254	-14
-1294	-14
-1086	-44
-596	-68
22	-50
558	18
864	96
900	54
658	-50
304	-130
24	-132
-256	-88
-644	-36
-1100	2
-1450	4
-1456	-20
-1110	-44
-748	-62
-668	-86
-804	-128
-924	-182
-928	-188
-820	-130
-596	-48
-326	32
-100	74
38	58
40	-2
-92	-50
-314	-84
-530	-94
-666	-96
-764	-104
-866	-98
-1026	-82
-1122	-86
-930	-112
-588	-100
-300	-24
-120	66
0	106
158	104
348	88
470	90
356	80
84	46
-132	20
-358	-6
-676	-32
-1082	-90
-1348	-140
-1288	-142
-984	-158
-662	-190
-476	-170
-446	-118
-480	-54
-604	0
-766	42
-762	52
-448	46
28	52
278	138
56	246
-530	328
-1116	326
-1478	210
-1576	38
-1402	-92
-864	-158
-200	-126
280	-74
540	-60
630	-66
392	-60
-230	-80
-960	-152
-1388	-220
-1444	-198
-1290	-138
-1078	-102
-892	-80
-832	-44
-860	-2
-778	28
-576	54
-356	54
-120	0
124	-34
290	-18
310	18
210	56
-64	38
-440	-12
-762	-10
-1000	38
-1046	38
-836	38
-652	18
-704	-22
-832	-58
-978	-84
-1074	-118
-940	-116
-612	-62
-292	-18
-164	-22
-138	-12
-66	0
-16	-16
-34	-2
-88	20
-170	6
-262	-74
-340	-146
-358	-142
-358	-58
-422	-2
-548	-16
-662	-30
-708	-12
-682	22
-590	50
-438	60
-196	32
-36	4
-236	-14
-714	-40
-1132	-76
-1270	-100
-1152	-98
-964	-86
-714	-78
-404	-100
-184	-132
-142	-96
-322	-24
-646	44
-892	76
-892	58
-574	34
-166	42
10	72
-90	84
-266	96
-298	104
-204	84
-226	36
-462	-8
-702	-22
-744	2
-572	50
-328	58
-264	2
-436	-58
-654	-134
-740	-144
-658	-106
-514	-88
-432	-62
-500	-46
-714	-26
-954	28
-1090	66
-1104	76
-966	88
-594	92
-136	74
94	22
74	-36
-64	-72
-248	-72
-412	-76
-514	-160
-476	-228
-366	-216
-360	-164
-446	-52
-560	98
-702	188
-810	184
-844	122
-808	44
-696	-34
-524	-62
-388	-36
-364	-2
-370	6
-338	-4
-360	-38
-502	-84
-686	-96
-770	-84
-818	-74
-960	-88
-1206	-104
-1374	-84
-1296	-28
-978	-8
-546	-24
-92	4
312	62
596	82
636	68
356	46
-150	-6
-594	-40
-726	-48
-580	-52
-326	-34
-96	-28
84	-64
102	-92
-96	-112
-426	-70
-836	60
-1234	170
-1548	140
-1684	70
-1606	16
-1398	-8
-1240	-36
-1214	-78
-1244	-106
-1144	-88
-712	-52
-162	-36
174	-26
184	2
-100	60
-538	90
-892	80
-950	66
-760	76
-398	46
-22	4
140	-6
112	2
70	16
60	14
102	40
254	66
366	66
190	54
-342	36
-1046	42
-1734	18
-2094	-60
-1958	-118
-1508	-124
-1024	-116
-668	-124
-346	-44
38	142
340	220
402	112
276	6
38	-10
-290	4
-594	0
-796	-12
-934	-16
-992	-4
-878	-4
-614	-24
-384	-40
-290	-10
-344	40
-408	58
-404	10
-312	-12
-192	-24
-196	-24
-370	-24
-600	-24
-794	-6
-846	42
-750	92
-544	72
-388	10
-430	-20
-678	-12
-1054	16
-1432	20
-1672	8
-1646	-32
-1316	-66
-804	-20
-236	74
258	72
572	30
634	14
464	20
186	38
-92	36
-344	28
-716	36
-1256	46
-1784	26
-1896	8
-1546	4
-990	-4
-506	0
-214	24
-142	28
-260	52
-440	96
-594	158
-674	226
-562	244
-308	172
-130	106
-192	98
-394	94
-504	68
-350	28
-90	-2
-24	-22
-252	-50
-568	-50
-740	-70
-696	-74
-512	-58
-278	-28
-62	34
108	88
114	92
-176	76
-696	62
-1170	68
-1452	108
-1472	92
-1304	8
-1158	-12
-1020	40
-832	118
-636	130
-392	108
-210	74
-164	30
-334	-28
-628	-82
-810	-92
-750	-64
-498	10
-192	32
66	10
28	4
-210	32
-402	52
-504	28
-468	-18
-248	-30
52	-2
222	42
114	94
-282	110
-728	78
-988	2
-1156	-44
-1304	-2
-1440	86
-1576	118
-1618	36
-1434	-44
-1068	-86
-626	-86
-296	-40
-224	10
-314	56
-434	126
-444	246
-324	318
-134	268
-28	144
-88	32
-240	-22
-402	-12
-520	20
-538	34
-504	58
-506	80
-558	52
-666	10
-882	-110
-998	-236
-732	-226
-94	-112
680	28
1200	120
1038	150
278	148
-682	140
-1568	68
-2232	-30
-2378	-84
-1926	-74
-1178	-20
-524	38
-148	56
36	36
176	52
368	98
584	142
674	150
474	118
-28	114
-544	168
-824	272
-934	322
-1038	206
-1304	34
-1502	-116
-1394	-196
-1046	-160
-602	-80
-260	-12
-182	12
-336	8
-560	6
-778	-4
-884	-24
-788	-38
-552	-24
-296	-2
-128	2
-120	-14
-174	-18
-58	4
236	34
370	44
-62	58
-1096	70
-2112	34
-2426	-26
-1928	-78
-1066	-64
-314	10
114	92
238	156
224	214
202	258
140	240
-28	164
-242	100
-316	74
-250	16
-260	-46
-430	-64
-702	-48
-874	-42
-822	0
-560	74
-280	74
-184	44
-180	54
-186	78
-212	72
-202	8
-270	-32
-432	34
-538	94
-464	66
-204	8
70	20
74	56
-276	88
-782	88
-1214	72
-1496	48
-1528	14
-1200	-6
-696	-14
-384	14
-466	4
-798	-32
-1034	-70
-1022	-104
-860	-96
-666	-50
-462	2
-258	32
-140	66
-130	102
-180	138
-142	192
122	224
536	228
830	190
702	112
84	26
-568	-16
-866	-26
-848	-50
-742	-98
-666	-132
-610	-168
-584	-204
-604	-200
-644	-134
-654	-24
-576	92
-398	200
-228	250
-242	226
-320	182
-308	124
-252	86
-302	82
-508	94
-852	116
-1314	102
-1692	84
-1586	56
-898	34
122	24
778	8
684	14
-84	46
-916	50
-1218	30
-960	40
-554	74
-430	82
-612	60
-858	10
-1064	-22
-1336	12
-1646	70
-1712	70
-1250	24
-400	-34
378	-56
790	-32
876	14
722	32
352	20
-54	52
-236	150
-174	204
-26	216
-84	202
-416	152
-818	74
-1172	-30
-1502	-110
-1716	-118
-1694	-74
-1388	48
-978	116
-592	118
-252	104
-28	108
54	108
38	52
-12	38
-2	80
122	140
324	180
496	150
446	86
20	-20
-664	-84
-1252	-62
-1492	12
-1396	82
-1062	132
-736	178
-534	174
-380	118
-254	44
-92	2
18	4
18	6
-116	-12
-366	-18
-588	0
-736	18
-918	30
-1102	20
-1162	12
-1048	-2
-834	-16
-618	12
-410	84
-136	164
242	208
646	214
840	228
626	226
-10	108
-854	-66
-1512	-184
-1760	-234
-1562	-218
-1134	-112
-754	78
-568	248
-518	320
-448	286
-344	252
-290	216
-252	186
-252	154
-310	96
-382	70
-574	46
-950	28
-1332	28
-1488	18
-1330	18
-972	30
-552	40
-160	36
174	40
406	44
472	104
294	166
-96	196
-404	210
-510	178
-624	114
-732	36
-772	-22
-810	-14
-816	42
-758	52
-588	-20
-346	-96
-144	-92
-14	-48
72	2
150	46
286	82
430	74
374	14
-6	-10
-524	34
-940	92
-1104	142
-1202	196
-1498	180
-1768	114
-1698	68
-1352	30
-994	-8
-720	-32
-486	-20
-196	-10
192	10
596	52
660	84
148	84
-544	60
-1076	2
-1428	-54
-1554	-82
-1454	-110
-1188	-128
-810	-110
-428	-42
-180	14
-128	42
-136	42
-46	10
114	24
226	74
206	82
50	36
-254	-34
-584	-58
-716	-30
-604	24
-326	54
-4	78
166	96
124	108
-32	116
-276	88
-528	64
-710	66
-810	66
-772	58
-596	60
-352	86
-224	106
-418	108
-1010	88
-1562	42
-1618	14
-1140	26
-508	90
-108	148
8	194
28	200
50	98
64	-36
-12	-64
-164	-38
-206	-16
-52	44
104	128
62	210
-106	250
-222	234
-212	230
-320	204
-642	114
-902	8
-982	-70
-1028	-122
-1132	-128
-1180	-84
-1154	-44
-1058	-38
-864	-4
-652	50
-512	114
-466	144
-510	118
-552	56
-720	28
-1086	58
-1250	92
-998	46
-674	-22
-502	-38
-444	-92
-344	-178
-150	-214
94	-164
248	-38
198	110
116	190
186	208
328	178
418	120
356	82
128	94
-296	84
-750	20
-1000	-12
-1062	6
-920	34
-552	56
-156	84
-28	106
-262	86
-642	32
-920	-28
-1008	-62
-940	-52
-762	-24
-516	24
-282	68
-198	78
-280	64
-454	56
-582	50
-462	58
-90	62
276	62
396	70
262	88
52	128
-168	122
-548	90
-1060	90
-1438	102
-1550	88
-1402	34
-1086	-62
-686	-100
-344	-96
-106	-68
-16	-46
-40	-20
-96	6
-104	54
-46	106
58	118
206	124
358	140
244	128
-190	106
-730	76
-1164	84
-1276	92
-1064	52
-766	-6
-660	-54
-862	-60
-1104	-14
-952	76
-472	190
-104	248
-18	172
-2	70
108	14
220	8
202	14
68	28
-104	34
-224	20
-278	14
-258	22
-144	56
10	94
148	84
160	58
-26	42
-296	14
-458	0
-402	12
-298	20
-264	32
-306	14
-376	24
-438	48
-618	92
-948	136
-1352	138
-1818	56
-2098	-70
-1828	-144
-1214	-150
-612	-112
-200	-70
-22	14
-108	104
-326	138
-486	92
-494	18
-368	8
-116	56
174	106
370	124
360	128
144	108
-206	76
-652	62
-1038	56
-1166	48
-954	28
-560	24
-270	20
-238	18
-266	44
-222	82
-138	90
-122	72
-280	20
-668	-22
-1014	-48
-1020	-48
-664	-2
-264	66
2	102
42	102
-140	102
-428	34
-628	8
-652	54
-438	88
48	104
614	116
1016	158
1090	218
678	214
-130	122
-968	12
-1664	-36
-2176	-32
-2294	-8
-1956	0
-1316	-20
-626	-24
-112	12
138	50
100	96
-122	112
-360	138
-496	186
-574	170
-694	94
-834	66
-960	118
-1012	154
-878	132
-568	80
-228	50
2	52
134	46
212	28
202	28
48	44
-216	72
-432	112
-480	134
-334	110
16	38
214	-44
-48	-94
-482	-94
-702	-74
-648	-84
-474	-88
-448	-32
-536	56
-654	120
-782	124
-756	70
-500	24
-166	24
-20	64
-196	122
-490	148
-680	106
-788	74
-890	70
-932	72
-818	90
-568	100
-220	120
182	142
484	132
626	154
538	184
196	178
-138	94
-186	-32
-90	-102
-194	-96
-562	-38
-968	-24
-1164	-28
-1054	0
-796	50
-586	82
-436	98
-428	88
-654	36
-866	18
-854	40
-678	52
-554	14
-536	-2
-542	0
-474	16
-318	54
-160	108
-44	162
16	182
2	164
-68	120
-154	96
-388	78
-804	56
-1158	12
-1226	-24
-1008	-32
-594	-12
-154	62
178	136
284	62
160	-88
-84	-92
-436	-22
-672	34
-534	84
-156	110
112	138
46	128
-168	126
-310	108
-398	68
-440	10
-380	-14
-160	-10
48	18
-12	58
-392	68
-798	56
-940	42
-784	16
-392	12
124	36
562	56
802	50
832	22
472	14
-306	2
-1174	10
-1784	64
-2024	144
-1888	220
-1346	274
-640	332
-454	334
-972	242
-1488	172
-1458	118
-944	28
-262	-78
96	-148
8	-164
-250	-146
-390	-152
-264	-116
146	-24
764	44
1356	148
1716	290
1680	408
1036	462
-134	464
-1440	390
-2400	216
-2714	0
-2390	-142
-1720	-170
-1072	-118
-602	-90
-290	-116
-20	-138
226	-150
406	-136
480	-58
446	54
368	174
188	264
-128	262
-540	148
-894	44
-974	22
-736	54
-486	88
-418	102
-436	106
-394	100
-274	102
-114	134
70	192
272	208
482	184
608	192
420	200
-200	104
-864	-40
-1226	-106
-1234	-100
-986	-24
-662	54
-436	134
-428	164
-492	92
-530	0
-498	-8
-318	64
-42	154
178	198
236	182
10	154
-410	146
-728	154
-714	116
-342	92
134	62
376	-12
334	-74
142	-90
-10	-50
-78	-6
-52	24
84	50
200	90
178	166
-32	220
-532	160
-1096	98
-1402	80
-1410	88
-1236	84
-972	48
-750	12
-624	0
-488	22
-314	54
-154	72
-138	68
-352	64
-694	58
-778	72
-512	94
-136	104
114	106
74	96
-342	80
-954	56
-1364	26
-1328	-20
-860	-44
-268	22
134	158
298	294
324	380
322	376
354	234
366	54
264	-4
146	4
140	-18
230	0
348	68
278	128
-152	156
-816	160
-1426	162
-1684	142
-1460	80
-1020	26
-604	16
-322	20
-154	38
-80	44
-136	42
-296	56
-474	68
-590	60
-466	44
-156	30
78	16
184	36
96	74
-248	98
-482	110
-202	136
424	146
936	140
1012	150
548	152
-218	112
-712	86
-822	88
-844	56
-950	28
-998	28
-902	22
-804	-4
-862	-38
-1034	-38
-1162	28
-1220	108
-1158	106
-844	14
-408	-62
-28	-72
228	-48
288	-2
152	50
-198	110
-602	120
-812	82
-788	50
-612	60
-398	92
-164	150
50	226
162	238
122	202
92	190
-14	164
-276	100
-480	28
-692	-16
-956	-32
-1042	-12
-932	26
-752	66
-514	108
-76	136
534	152
1088	150
1364	180
1178	214
464	184
-320	130
-678	114
-654	100
-502	78
-342	80
-316	132
-498	164
-972	158
-1574	114
-1818	34
-1482	-20
-810	-36
-98	-34
404	24
618	120
586	194
402	204
240	204
228	200
270	172
268	130
62	66
-482	-16
-1096	-28
-1366	20
-1230	54
-930	78
-682	114
-578	154
-574	182
-496	162
-288	142
-96	130
-68	122
-128	86
-200	24
-302	-6
-416	14
-460	-2
-430	-30
-326	-28
-212	22
-166	54
-256	42
-394	52
-430	142
-308	264
-24	352
264	360
378	266
272	136
-12	16
-402	-28
-852	-6
-1166	16
-1118	26
-676	60
-40	120
532	172
820	212
670	216
80	188
-854	120
-1708	52
-2100	8
-1946	12
-1486	0
-928	10
-408	78
-48	136
110	160
-6	170
-314	138
-626	60
-778	42
-486	98
166	164
714	208
806	202
422	126
-72	26
-350	-54
-390	-60
-340	0
-308	66
-294	98
-308	86
-338	74
-384	80
-416	100
-356	142
-230	182
-124	214
-186	224
-456	192
-820	140
-1054	68
-844	0
-258	2
336	44
600	118
512	196
120	178
-392	126
-796	152
-1124	178
-1382	140
-1332	64
-892	24
-266	-2
258	6
402	20
226	28
36	40
-20	68
68	94
200	134
250	180
100	206
-106	230
-276	226
-450	154
-590	74
-590	28
-468	58
-362	114
-334	120
-270	124
-62	154
322	174
740	172
844	144
340	120
-648	38
-1538	-28
-1924	-22
-1736	2
-1090	54
-368	106
-30	126
-152	120
-508	92
-828	54
-920	64
-892	110
-914	98
-874	60
-582	58
-218	88
84	108
244	88
202	94
124	148
234	204
572	218
908	196
904	166
496	134
-154	100
-788	124
-1098	168
-1020	178
-772	170
-612	136
-700	126
-1010	208
-1388	308
-1722	330
-1798	230
-1362	90
-516	8
302	2
742	30
708	52
328	104
-140	148
-442	150
-522	112
-550	58
-558	40
-502	48
-356	66
-196	102
-128	134
-100	156
-4	152
128	92
224	22
220	12
110	14
104	52
392	124
784	202
1052	248
1036	248
596	180
-172	48
-746	-46
-964	-70
-994	-14
-1102	66
-1356	120
-1482	126
-1196	126
-548	100
132	82
584	52
644	36
214	46
-360	54
-714	30
-818	22
-886	58
-968	138
-1006	262
-950	360
-916	346
-916	222
-646	116
-26	54
594	34
716	56
190	48
-616	64
-1282	62
-1526	18
-1302	-10
-818	-4
-256	40
176	82
394	124
358	148
196	130
32	116
-116	112
-160	116
-48	130
150	136
256	140
204	138
104	144
90	162
138	92
-22	6
-482	4
-914	86
-1152	138
-1236	174
-1138	180
-886	158
-704	132
-600	118
-428	136
-222	162
-28	172
154	170
420	174
768	208
1060	268
1112	302
676	272
-256	238
-1164	216
-1678	224
-1726	254
-1586	260
-1434	176
-1148	72
-640	46
-36	96
452	136
692	176
608	192
312	208
-14	228
-354	252
-726	260
-1060	228
-1028	164
-610	98
-180	76
-28	92
-230	94
-630	66
-946	28
-960	0
-610	28
-116	126
310	286
714	360
988	296
884	214
424	170
-132	156
-550	144
-756	154
-802	194
-786	210
-772	192
-808	124
-794	94
-530	120
-142	146
36	144
-138	132
-438	108
-490	84
-200	96
232	126
472	172
334	228
-114	262
-682	266
-990	228
-838	180
-488	132
-186	104
32	82
140	88
152	72
122	34
-46	54
-424	124
-870	174
-1266	186
-1376	196
-1110	206
-670	228
-294	234
-50	232
48	170
40	80
-74	64
-308	116
-454	166
-398	234
-178	280
122	270
354	202
430	148
288	110
4	76
-266	66
-390	80
-404	114
-380	148
-336	192
-256	246
-154	288
-64	258
-154	172
-408	146
-666	172
-854	196
-1018	220
-1144	238
-1122	212
-840	156
-410	124
-118	138
-38	146
-8	92
6	30
-46	6
-120	-14
-164	34
-126	152
-56	286
34	336
46	338
-172	352
-558	334
-864	240
-882	168
-642	138
-248	122
40	110
-122	132
-604	210
-1022	240
-1134	228
-974	204
-682	148
-302	32
172	-58
536	-20
652	80
484	170
178	218
-122	240
-372	254
-608	272
-812	280
-872	248
-654	184
-228	142
180	122
362	106
290	92
30	76
-234	100
-390	142
-434	162
-504	150
-648	140
-744	160
-674	166
-358	164
104	156
414	162
412	182
166	236
-224	298
-588	334
-618	322
-270	284
170	282
404	264
206	224
-294	172
-868	88
-1384	30
-1490	36
-1118	26
-610	0
-200	14
44	54
122	110
34	168
-200	206
-444	222
-580	216
-560	204
-364	196
-98	196
40	190
-66	174
-276	176
-468	198
-558	218
-382	220
10	192
288	136
316	66
270	-2
266	28
284	148
188	248
-164	306
-678	354
-1174	332
-1396	260
-1232	194
-822	176
-430	178
-194	142
-100	114
-18	116
60	122
58	116
-32	74
-100	52
-40	86
78	140
122	172
78	158
-120	132
-356	124
-434	136
-398	148
-384	158
-322	174
-218	174
-130	172
-106	154
-144	134
-248	114
-402	84
-520	72
-540	102
-496	138
-448	168
-478	242
-604	350
-726	414
-574	398
-96	314
280	200
96	138
-538	144
-1108	142
-1150	84
-682	30
-140	44
96	88
-4	116
-172	130
-188	140
-40	200
218	272
470	330
416	362
-8	378
-682	364
-1426	334
-1822	288
-1634	222
-1086	166
-516	100
-74	28
212	12
388	70
430	138
364	208
248	200
126	186
-48	212
-350	248
-612	228
-516	186
-8	166
542	146
732	146
366	168
-300	140
-800	42
-1028	-6
-1112	26
-1168	74
-1158	102
-1010	90
-678	90
-184	110
378	138
776	190
782	224
454	220
42	174
-284	158
-364	192
-242	196
-78	152
-8	110
-144	102
-424	80
-688	68
-712	98
-422	134
-38	178
68	244
-454	316
-1284	380
-1688	384
-1370	304
-522	220
294	186
602	162
478	140
150	148
-198	152
-342	174
-232	172
86	110
372	78
396	66
152	64
-202	96
-476	156
-540	162
-536	120
-660	92
-716	100
-602	132
-422	168
-286	230
-182	264
-120	286
-172	326
-474	346
-1004	284
-1418	170
-1346	74
-834	38
-204	40
224	62
268	96
34	144
-166	196
-216	244
-66	298
274	346
650	312
818	228
646	152
110	122
-544	108
-926	78
-962	108
-692	194
-388	276
-364	308
-532	270
-892	184
-1194	122
-1052	76
-542	66
-10	84
352	120
478	154
370	188
36	202
-358	204
-618	176
-664	148
-534	140
-294	134
-38	126
154	120
192	128
80	132
-120	126
-358	122
-584	122
-650	166
-404	210
164	206
808	206
1152	224
932	214
62	178
-1164	160
-2048	136
-2258	112
-1884	96
-1172	88
-350	90
454	104
1030	110
1232	124
1090	146
734	164
316	158
14	144
-122	142
-126	154
-70	164
-18	158
-74	160
-328	156
-664	188
-962	252
-1102	330
-836	354
-352	294
-70	200
-54	112
-158	46
-278	42
-422	86
-570	114
-574	128
-554	128
-580	132
-692	170
-802	200
-720	184
-502	136
-344	104
-354	104
-418	114
-480	120
-590	116
-600	130
-396	142
-44	134
256	140
340	150
276	170
302	196
456	182
634	166
816	226
960	292
976	332
690	364
-274	340
-1656	222
-2648	80
-2780	4
-2142	-8
-1208	0
-422	18
110	58
430	128
622	224
716	274
708	228
656	138
366	126
-44	148
-300	166
-326	116
-198	96
-226	120
-508	136
-818	126
-948	120
-888	124
-788	122
-678	108
-558	112
-464	118
-454	114
-532	160
-622	294
-604	464
-468	582
-322	530
-258	346
-346	182
-464	68
-434	14
-236	-6
-16	2
138	24
282	58
348	94
282	98
234	68
426	66
904	134
1454	220
1770	214
1510	158
556	136
-770	138
-1858	132
-2378	136
-2254	144
-1690	136
-1024	114
-484	114
-190	116
-172	114
-342	116
-492	130
-504	164
-358	212
-36	220
308	128
410	50
132	24
-326	20
-644	6
-654	56
-482	118
-330	148
-306	162
-348	178
-326	204
-122	230
318	222
762	194
932	136
708	108
350	128
104	216
-18	322
-222	352
-676	300
-1060	212
-1116	136
-954	68
-792	16
-692	-4
-684	6
-696	62
-614	128
-350	202
8	264
294	286
458	270
502	190
408	118
168	138
-134	206
-584	234
-1246	192
-1720	114
-1718	48
-1448	-24
-1042	-84
-428	-84
244	-18
828	46
1258	96
1446	148
1276	176
688	188
-118	166
-750	140
-1056	134
-1146	144
-1188	162
-1178	152
-948	114
-410	100
280	140
738	202
784	274
490	350
64	396
-210	314
-322	142
-338	24
-294	6
-270	46
-332	36
-542	-18
-766	-38
-806	-6
-636	46
-370	122
-236	220
-252	338
-344	416
-494	386
-778	304
-998	180
-920	30
-536	-58
16	-56
476	2
792	92
828	170
460	220
-154	246
-694	248
-954	190
-768	120
-360	92
-80	84
72	104
244	152
462	206
632	222
514	180
-4	94
-644	32
-1082	14
-1180	20
-948	24
-586	44
-316	100
-264	182
-436	232
-674	234
-702	234
-440	256
-8	248
400	224
564	174
366	92
-36	20
-286	-40
-218	-46
44	-10
320	64
478	130
418	180
140	228
-236	248
-662	214
-1002	184
-1022	166
-686	118
-252	74
28	76
84	86
-78	56
-410	10
-724	-38
-840	-50
-788	20
-668	116
-462	126
-234	82
-36	70
18	106
-60	136
-164	168
-336	216
-640	272
-944	306
-1002	304
-770	240
-474	130
-288	52
-218	12
-122	8
-22	20
122	44
278	54
374	92
370	114
132	132
-258	146
-492	162
-556	192
-350	212
72	250
314	284
68	284
-728	210
-1488	120
-1612	64
-1164	14
-456	2
284	-4
806	2
980	16
822	40
432	108
20	178
-100	182
286	192
792	218
882	234
260	228
-974	226
-1842	248
-1844	280
-1282	296
-660	258
-162	188
130	98
248	6
280	-26
284	-16
292	14
256	60
26	94
-374	120
-800	128
-1088	114
-1132	92
-1016	68
-812	28
-482	-22
-210	-26
-50	66
28	192
32	270
-4	232
-120	178
-294	176
-404	132
-386	80
-252	66
-86	128
80	210
234	208
308	120
164	6
-120	-82
-278	-102
-238	-90
-116	-46
-12	34
36	116
-8	190
-214	230
-520	230
-738	214
-698	198
-474	182
-252	126
-196	88
-308	92
-430	86
-490	64
-382	18
-40	-22
346	-14
530	32
454	74
156	122
-106	146
-236	156
-286	156
-384	128
-508	120
-546	132
-446	144
-152	158
198	182
374	198
262	180
-18	132
-212	108
-238	122
-198	108
-258	84
-442	72
-606	88
-592	144
-336	206
72	226
466	186
684	110
656	70
360	60
-178	96
-868	160
-1572	200
-2112	156
-2204	50
-1698	0
-846	30
-108	62
168	54
56	28
-60	26
-50	44
126	66
406	88
554	112
490	124
286	128
120	102
124	104
204	130
76	178
-172	238
-254	236
-256	214
-368	190
-600	106
-872	46
-948	32
-736	76
-308	106
144	96
448	102
518	88
400	98
154	100
-78	82
-108	92
-12	102
-32	122
-288	96
-682	60
-1026	76
-1178	110
-1104	146
-804	168
-296	184
264	198
570	192
528	146
266	86
-108	64
-414	42
-578	46
-704	110
-854	196
-1004	228
-1014	168
-756	100
-366	48
-124	52
-10	92
358	122
878	126
1000	130
500	82
-390	10
-1338	-8
-1898	8
-1792	40
-1248	58
-660	78
-130	82
400	110
756	180
688	250
296	262
-128	210
-458	138
-572	70
-404	-6
-78	-36
188	-18
334	20
422	58
490	96
490	140
254	130
-180	98
-664	98
-1066	110
-1204	122
-1024	116
-640	100
-190	32
128	-26
196	-14
16	30
-286	94
-558	164
-630	232
-474	234
-188	202
218	174
704	148
1026	118
1046	78
746	44
312	14
-58	-2
-256	-10
-326	-4
-464	-4
-726	-4
-900	18
-862	36
-688	88
-472	132
-196	158
242	176
790	194
1288	214
1464	222
1020	200
110	142
-684	86
-960	54
-872	48
-676	28
-566	30
-636	32
-834	-18
-920	-70
-786	-46
-492	80
-124	230
232	286
482	260
462	228
60	212
-724	186
-1606	132
-2346	76
-2760	52
-2576	46
-1730	54
-568	42
392	28
844	14
852	12
656	46
474	104
420	146
516	156
726	142
862	130
828	108
596	82
194	82
-212	116
-452	114
-494	44
-360	-10
-238	-20
-252	4
-290	48
-248	70
-146	96
-154	142
-184	198
-186	246
-174	268
-186	220
-320	140
-582	84
-846	92
-1002	114
-992	106
-832	96
-510	118
-104	112
208	12
310	-88
198	-92
50	-2
20	100
144	140
266	140
206	134
18	132
-96	106
76	64
376	34
510	16
324	6
-138	-2
-634	6
-936	-8
-1010	0
-962	44
-898	84
-838	132
-672	182
-288	218
40	232
230	196
176	122
-176	34
-558	-42
-744	-104
-714	-132
-610	-114
-550	-58
-576	2
-650	60
-634	98
-502	112
-306	112
-142	102
-70	90
6	100
56	102
-12	90
-152	82
-314	82
-404	110
-338	138
-142	154
120	154
398	152
558	102
512	14
314	-16
132	8
62	32
84	40
160	64
208	86
134	114
-38	128
-228	158
-440	182
-642	196
-688	196
-592	196
-516	190
-532	138
-562	54
-512	-2
-378	-10
-290	18
-408	46
-730	92
-1072	112
-1052	90
-620	42
-84	8
286	10
440	32
414	36
286	34
104	24
-94	20
-306	28
-488	42
-548	52
-498	54
-386	74
-282	70
-172	68
-78	66
-8	82
32	92
66	104
136	126
270	128
476	94
614	72
528	52
224	60
-186	60
-644	50
-996	54
-1092	54
-932	64
-648	78
-376	116
-130	156
42	146
154	128
178	108
32	62
-178	28
-344	10
-484	14
-568	26
-582	38
-572	50
-474	64
-268	66
-58	72
94	80
134	94
100	116
6	150
-108	180
-188	138
-232	64
-234	20
-198	18
-148	46
-116	68
-100	64
-114	44
-140	42
-162	46
-166	62
-164	72
-136	62
-84	80
-4	92
76	116
96	130
46	140
-46	124
-138	118
-198	102
-224	90
-250	80
-276	70
-278	60
-270	58
-270	56
-282	56
-286	56
-272	56
-250	54
-204	50
-168	60
-162	78
-186	86
-200	96
-208	96
-202	94
-180	98
-142	104
-120	104
-122	80
-142	66
-160	62
-170	76
-176	78
-178	76
-178	78
-172	80
-156	74
-140	70
-130	78
-124	90
-136	100
-152	110
-172	100
-190	100
-184	100
-160	106
-146	116
-138	112
-150	110
-174	108
-200	104
-218	94
-230	76
-212	52
-176	38
-116	26
-46	10
14	20
38	66
-18	106
-132	128
-244	140
-300	150
-308	180
-272	196
-226	158
-166	114
-126	72
-116	58
-130	82
-182	94
-230	98
-270	94
-290	84
-290	80
-286	86
-272	90
-262	96
-250	108
-246	114
-236	122
-226	128
-226	134
-222	142
-214	148
-218	138
-224	128
-226	124
-240	122
-246	114
-254	100
-254	102
-252	106
-248	120
-244	128
-240	122
-236	110
-240	106
-244	116
-246	126
-248	142
-250	144
-244	136
-246	142
-242	160
-242	168
-242	160
-240	144
-236	136
-230	134
-238	130
-240	122
-242	122
-246	108
-248	100
-252	94
-254	94
-256	108
-252	120
-246	132
-248	146
-244	162
-248	172
-246	182
-246	184
-246	188
-246	186
-252	184
-250	180
-246	178
-244	168
-246	156
-240	150
-236	152
-230	144
-232	142
-226	144
-238	142
-252	154
-264	170
-264	186
-256	192
-246	204
-250	216
-250	218
-248	224
-254	226
-256	218
-258	208
-256	198
-252	182
-248	172
-244	168
-248	156
-248	156
-254	152
-260	158
-252	180
-254	202
-256	212
-258	224
-254	244
-244	254
-242	264
-246	268
-252	284
-258	292
-268	284
-274	276
-266	262
-270	244
-266	228
-264	232
-266	226
-256	224
-258	218
-250	220
-258	238
-258	254
-256	270
-258	282
-264	290
-260	296
-260	306
-264	310
-264	306
-278	272
-276	254
-268	268
-256	290
-240	294
-242	300
-248	288
-254	266
-256	254
-262	250
-264	260
-256	272
-250	290
-240	302
-230	304
-224	312
-220	320
-226	332
-248	338
-272	338
-290	342
-300	336
-296	330
-296	328
-288	330
-286	324
-286	316
-286	310
-284	306
-276	298
-274	308
-270	314
-262	322
-256	334
-256	340
-256	352
-252	362
-254	372
-252	380
-252	382
-248	382
-242	382
-240	378
-240	376
-244	364
-244	350
-248	350
-244	342
-246	342
-242	350
-240	354
-234	356
-228	370
-228	378
-222	390
-222	404
-218	412
-212	422
-208	420
-208	418
-210	406
-212	402
-220	400
-222	398
-226	398
-226	400
-228	396
-230	392
-226	384
-222	386
-220	392
-214	392
-208	400
-206	408
-204	420
-206	420
-208	418
-212	422
-212	432
-216	436
-214	440
-218	438
-220	432
-224	430
-224	422
-218	414
-214	412
-210	404
-208	400
-196	394
-194	386
-190	396
-184	402
-196	410
-194	426
-188	428
-192	438
-186	446
-176	456
-174	462
-174	464
-180	458
-184	452
-188	444
-190	436
-192	430
-190	420
-190	410
-182	406
-176	404
-172	406
-168	420
-168	436
-168	446
-174	446
-180	444
-186	448
-188	460
-184	464
-182	470
-188	472
-172	464
-172	458
-168	452
-166	452
-164	446
-158	442
-150	440
-148	436
-140	434
-128	434
-112	436
-98	438
-86	446
-76	458
-78	466
-82	478
-98	486
-120	490
-138	494
-146	490
-160	490
-170	482
-170	470
-168	472
-160	468
-150	472
-130	466
-122	466
-110	462
-106	458
-96	462
-82	460
-76	468
-62	476
-50	474
-34	476
-34	486
-38	490
-46	490
-64	502
-70	506
-82	502
-82	496
-82	502
-82	496
-78	490
-70	488
-60	478
-46	474
-34	478
-26	480
-26	486
-22	494
-18	496
-20	506
-22	514
-20	520
-22	518
-22	526
-20	522
-14	524
-4	522
-2	518
6	514
8	510
4	512
0	500
-4	506
-8	510
-10	510
-6	518
2	522
2	528
8	536
6	538
10	550
14	552
10	562
18	566
18	566
16	568
26	564
24	564
28	564
34	558
38	556
44	554
48	546
44	550
50	546
50	546
48	550
42	556
36	560
32	568
32	576
30	576
32	578
22	568
24	570
32	576
46	578
60	574
60	568
54	558
50	552
48	548
48	544
52	548
58	552
58	554
60	568
58	568
60	578
50	588
50	586
44	592
40	604
44	600
44	600
44	598
48	598
52	592
52	586
56	582
60	590
64	578
68	584
78	570
84	562
88	560
86	564
82	576
78	578
70	588
66	588
62	590
70	594
86	590
92	588
100	594
108	588
98	588
94	584
86	586
66	592
68	596
66	586
70	572
78	558
80	562
80	568
76	576
70	584
66	592
68	598
76	596
82	596
92	594
104	588
116	582
126	576
162	564
196	564
224	562
238	548
238	546
218	562
184	570
144	588
98	600
46	616
-6	620
-40	632
-52	636
-56	640
-38	640
-22	640
-6	638
10	640
20	638
34	628
44	630
50	624
54	620
62	614
70	604
78	600
84	596
94	594
94	592
102	602
102	608
100	616
108	622
98	630
102	630
102	630
104	632
102	632
104	634
102	634
104	626
108	622
104	614
114	604
118	596
116	594
124	594
132	600
134	602
132	604
134	606
138	606
134	616
134	628
132	626
134	628
132	628
144	630
154	636
152	634
160	626
158	624
164	612
172	606
174	600
172	594
172	594
184	592
184	600
188	600
184	606
184	614
180	632
174	628
168	630
162	624
162	618
160	622
162	622
168	618
176	616
186	610
194	596
200	600
206	598
210	604
208	608
210	612
206	606
204	614
210	612
212	618
210	620
210	624
214	622
218	626
214	616
214	620
208	622
198	622
194	622
186	604
196	588
204	584
210	576
212	574
214	574
210	582
200	588
192	598
190	602
186	610
186	612
188	618
188	616
178	616
174	626
172	622
174	620
180	620
190	614
196	608
200	610
200	606
204	600
204	590
202	590
206	590
206	590
206	594
208	598
208	604
200	608
204	604
200	612
204	616
200	616
196	618
192	618
180	616
180	608
182	600
180	602
192	590
194	594
196	590
206	582
212	586
212	590
214	590
216	596
220	596
212	604
212	596
206	606
204	602
206	606
200	608
196	612
196	618
184	612
198	598
202	600
208	590
214	580
218	568
218	564
220	568
222	574
224	578
220	584
220	590
220	596
218	602
218	602
212	600
206	594
206	594
206	600
204	602
206	592
214	578
216	570
216	562
226	562
228	560
224	558
222	554
224	552
214	558
218	566
220	578
220	582
214	586
208	586
204	580
204	568
210	572
212	570
208	562
216	556
218	552
222	550
228	540
234	546
238	542
254	534
256	522
252	524
244	534
232	552
220	562
214	572
210	580
214	578
212	578
218	576
220	566
222	558
218	542
214	530
202	524
198	520
196	524
188	520
182	514
178	484
170	450
174	428
194	408
206	416
218	430
226	446
222	452
232	462
238	488
234	518
212	554
174	590
148	626
134	650
142	656
168	644
194	628
214	618
216	606
218	588
218	574
216	562
216	554
226	552
228	560
232	560
232	566
228	574
224	580
224	584
218	586
230	590
230	588
240	578
246	566
256	530
254	484
262	432
272	386
280	344
276	318
262	306
252	310
230	356
210	420
188	470
168	502
144	504
122	482
104	468
98	452
100	444
110	444
128	452
166	468
194	492
224	514
232	528
218	540
206	530
196	510
200	516
212	554
218	590
216	606
206	588
194	566
190	548
188	548
198	560
206	568
220	560
264	494
284	462
278	494
256	548
216	582
174	594
160	588
172	544
184	466
186	424
186	436
182	478
164	490
136	474
130	466
144	470
174	498
188	530
192	570
186	610
188	636
198	642
220	642
230	646
222	650
204	630
186	608
176	578
174	554
166	548
160	546
174	552
190	550
214	536
246	534
280	538
322	538
352	528
376	532
382	538
380	522
368	486
338	454
308	440
276	454
256	490
250	512
256	520
256	528
242	534
228	560
218	580
210	590
198	592
194	594
202	602
216	622
226	642
222	656
206	624
200	572
200	518
202	472
208	430
214	374
218	338
226	294
224	306
228	368
224	446
212	512
192	534
158	552
134	550
122	562
120	588
104	598
64	580
14	576
-32	558
-60	556
-56	562
-34	568
-6	592
16	610
8	604
6	574
-8	552
-30	586
-44	634
-16	656
70	656
152	650
234	650
308	634
382	592
452	522
524	408
570	224
574	106
548	118
504	190
454	268
400	340
346	422
300	540
266	650
248	706
248	696
264	652
276	582
280	514
258	486
220	482
188	522
178	580
178	648
190	700
200	722
220	712
266	682
298	644
322	598
326	550
300	480
256	418
226	354
216	258
208	124
216	28
238	4
254	40
248	122
202	264
124	438
32	620
-46	772
-108	856
-128	872
-98	898
-24	928
68	912
146	802
200	606
220	478
206	458
168	462
118	456
76	494
50	646
54	824
108	894
224	828
354	702
470	540
536	374
548	192
480	-12
354	-180
210	-304
136	-376
104	-266
32	40
-60	346
-130	476
-136	468
-68	512
28	616
116	784
182	986
232	1202
282	1384
344	1472
420	1396
504	1186
570	898
600	584
582	386
494	400
362	438
248	374
162	246
110	160
76	60
54	-82
60	-186
76	-298
132	-462
210	-678
244	-828
204	-748
118	-426
42	126
-8	730
-26	1220
-14	1518
44	1574
160	1446
298	1218
402	952
440	702
406	560
340	552
268	542
208	536
164	550
128	564
80	590
2	674
-72	838
-138	984
-180	984
-136	890
-30	742
122	562
266	470
366	490
394	544
386	492
356	204
312	-272
268	-602
220	-690
188	-570
174	-358
164	-140
150	28
152	138
188	250
218	320
238	346
238	400
238	606
240	910
254	1118
278	1108
260	836
204	404
154	54
152	-120
168	-228
184	-368
214	-450
230	-322
188	164
126	826
102	1422
124	1728
160	1722
218	1588
306	1364
378	1086
372	904
274	864
148	858
76	742
68	540
88	328
124	134
176	94
210	82
226	100
284	272
372	792
460	1372
560	1562
714	1272
908	690
1088	126
1176	-34
1116	212
924	694
622	1132
260	1260
-60	1022
-258	704
-338	510
-324	326
-232	160
-112	-24
8	-130
124	136
188	542
158	950
84	1036
56	696
88	394
128	368
166	476
210	612
274	670
352	504
412	164
454	-64
496	-60
504	408
432	988
336	1228
222	1154
90	812
-58	360
-156	170
-190	268
-114	754
18	1448
112	2060
124	2444
102	2198
78	1152
98	-304
160	-1472
208	-1854
220	-1310
210	-348
200	526
164	850
112	690
54	630
-44	714
-188	550
-294	224
-318	186
-312	684
-324	1354
-324	1894
-268	1910
-140	1408
4	1052
162	1112
404	1128
736	960
1078	760
1304	818
1374	878
1298	776
1128	832
876	1052
560	1138
238	860
-6	396
-132	-42
-150	-380
-54	-386
68	-50
154	150
160	80
62	48
-40	378
-50	1052
-36	1754
-54	2158
-40	2270
64	2154
200	1934
288	1548
256	1000
162	856
94	826
58	790
-12	1036
-150	1220
-246	1064
-224	724
-128	504
-152	532
-320	754
-488	1142
-552	1252
-484	1014
-298	628
-54	198
126	-190
166	-226
100	-106
28	-154
-8	-312
-82	-584
-212	-990
-338	-904
-430	-196
-434	876
-414	1792
-348	2448
-212	2952
-58	3092
84	2976
214	2572
338	2222
386	2114
350	1864
262	1222
194	4
132	-872
46	-980
-58	-932
-92	-798
-68	-632
-54	-818
-32	-1212
-12	-1412
-64	-950
-144	-56
-118	988
-2	1744
126	2176
220	2548
262	2758
272	2702
286	2656
272	2718
238	2642
166	2396
48	2136
-90	1574
-192	754
-240	-48
-212	-458
-120	-198
-72	532
-100	1020
-126	1264
-92	1528
-24	1768
26	1978
32	2278
-14	2146
-56	1620
-64	1060
-46	722
-56	604
-84	548
-98	562
-110	610
-124	600
-132	546
-150	420
-166	290
-150	160
-100	20
-28	-26
40	304
84	942
86	1510
52	1738
22	1676
-26	1436
-98	1260
-190	1200
-270	1060
-298	868
-306	754
-320	558
-294	370
-272	358
-284	268
-268	6
-174	-94
-42	-24
104	-80
218	-394
268	-618
202	-710
66	-836
-34	-1116
-74	-1446
-96	-1058
-142	552
-162	2302
-140	3326
-116	3878
-136	4154
-278	3824
-424	3014
-480	2246
-446	1794
-380	1574
-318	1280
-264	898
-262	514
-342	184
-454	24
-530	192
-536	672
-500	1182
-466	1386
-486	1336
-486	822
-396	424
-212	436
-16	528
124	610
156	372
42	-204
-142	-516
-256	-398
-220	-16
-78	654
102	1376
236	1834
318	1962
352	1856
342	1564
292	1204
230	862
162	648
96	566
30	540
-66	594
-154	836
-226	1232
-308	1216
-374	536
-374	-144
-354	-150
-358	404
-366	1066
-354	1620
-310	2070
-272	2280
-262	2170
-288	1798
-314	1322
-320	902
-298	412
-246	-320
-218	-1280
-190	-1934
-186	-1922
-248	-1166
-334	40
-380	1356
-394	2606
-432	3228
-468	3160
-460	2796
-400	2394
-306	1972
-198	1314
-110	410
-48	-536
-16	-1468
-8	-1732
-32	-1324
-78	-578
-118	128
-150	720
-212	1306
-344	1744
-486	1804
-562	1726
-532	1734
-468	1962
-380	1788
-264	1042
-174	190
-112	-322
-62	-94
-30	742
-10	1614
0	2206
-20	2354
-60	2172
-114	1698
-186	850
-294	-142
-408	-688
-506	-680
-530	-220
-364	136
-30	422
250	644
366	826
374	1052
350	1086
338	962
308	872
260	884
184	918
14	936
-230	832
-484	344
-648	-394
-718	-566
-722	-42
-660	458
-590	1164
-536	1942
-500	2626
-498	2948
-534	2804
-604	2228
-664	1300
-634	546
-516	140
-402	162
-366	522
-428	684
-522	502
-568	208
-538	6
-464	-236
-350	-126
-264	422
-296	900
-400	960
-466	898
-462	756
-374	394
-234	292
-126	646
-104	1074
-162	1204
-274	1028
-356	548
-412	54
-430	-352
-416	-632
-402	-546
-408	-244
-388	256
-320	1418
-228	2544
-160	2886
-164	2566
-248	1972
-338	1362
-312	902
-118	484
66	232
42	452
-134	1000
-320	1164
-464	418
-576	-786
-682	-1650
-812	-1574
-872	-658
-840	666
-726	1598
-558	1458
-412	702
-356	98
-344	48
-302	502
-242	1184
-222	1590
-248	1544
-336	1386
-386	1160
-394	508
-466	-358
-646	-908
-844	-454
-936	712
-860	1888
-694	2764
-562	3032
-548	2954
-566	2752
-572	2480
-570	2204
-552	1900
-526	1492
-496	1048
-450	732
-400	540
-404	388
-508	84
-648	-482
-752	-892
-762	-756
-706	-190
-658	308
-612	296
-536	170
-418	368
-262	422
-110	468
-76	902
-152	1428
-220	1726
-232	1658
-262	1412
-364	580
-468	-772
-490	-1540
-470	-998
-436	80
-344	900
-282	1466
-324	1688
-480	1360
-602	986
-572	978
-422	1136
-196	1402
-12	1818
48	1954
-12	1678
-206	1180
-506	192
-778	-872
-898	-1158
-862	-1008
-734	-666
-630	-276
-602	322
-572	942
-514	1278
-418	1410
-302	1268
-234	924
-272	394
-390	-426
-532	-1360
-698	-1868
-878	-1436
-1002	-14
-1028	1668
-942	2730
-754	3406
-572	3414
-498	2788
-454	2186
-396	1778
-334	1338
-278	658
-230	-350
-188	-1128
-154	-1172
-90	-766
44	-194
210	458
312	746
276	296
114	-110
-96	-348
-302	-542
-452	-682
-498	-500
-472	482
-412	1626
-384	2142
-366	1824
-382	1358
-498	882
-698	498
-926	392
-1126	656
-1308	1388
-1468	1956
-1506	2094
-1338	2058
-1034	1740
-686	1254
-396	770
-234	286
-194	-404
-270	-1136
-478	-1076
-732	-100
-918	1030
-990	1592
-944	1396
-828	414
-620	-412
-304	-598
42	-452
262	52
246	800
-8	1634
-356	2374
-568	2794
-584	2618
-530	1760
-482	672
-552	56
-752	248
-1002	734
-1144	800
-1152	700
-1104	174
-956	-546
-736	-870
-542	-524
-394	294
-286	918
-182	1452
-108	1690
-98	1660
-164	1382
-280	952
-374	432
-390	224
-368	378
-378	340
-354	-394
-240	-1284
-100	-1568
24	-1240
84	-160
100	1184
26	2404
-158	3002
-380	3112
-532	2844
-528	2232
-468	1590
-442	1072
-524	774
-674	578
-796	94
-840	-606
-862	-1184
-950	-1450
-1040	-1196
-1014	-822
-898	-636
-860	-398
-950	-32
-1054	386
-1024	1086
-860	1688
-602	2114
-320	2328
-62	2194
122	1614
240	1002
276	698
192	374
26	-402
-128	-1082
-184	-774
-184	376
-202	1250
-142	1694
-74	1980
-116	2168
-218	2072
-292	1674
-296	1182
-290	616
-304	-416
-346	-1708
-428	-2518
-572	-2334
-730	-1650
-808	-692
-862	86
-896	278
-916	290
-902	190
-842	404
-718	1208
-538	2042
-350	2478
-196	2406
-64	1864
-18	998
-100	180
-264	182
-446	1138
-602	1822
-720	1964
-770	1562
-704	946
-586	692
-520	218
-476	-310
-476	8
-562	790
-700	1068
-780	632
-822	-40
-890	-804
-936	-1800
-904	-2860
-842	-3020
-752	-1994
-638	-828
-488	648
-368	1948
-362	2742
-438	3090
-446	3020
-346	2640
-196	2108
-134	1672
-176	1360
-248	1212
-296	1078
-300	944
-264	930
-276	910
-332	702
-334	408
-256	160
-148	246
-118	554
-192	726
-270	638
-308	530
-330	290
-330	-58
-338	-282
-350	-248
-350	-112
-276	-450
-158	-622
-48	-312
34	124
56	560
-14	1058
-152	1518
-328	1770
-458	1638
-496	1116
-464	428
-436	170
-442	240
-522	200
-672	94
-844	-36
-962	-126
-994	-198
-958	-80
-898	-22
-824	30
-730	360
-684	794
-752	770
-862	468
-926	208
-882	266
-766	640
-656	1010
-584	1244
-550	1004
-594	468
-636	394
-620	1066
-526	1456
-404	1192
-358	796
-312	458
-228	262
-176	326
-176	402
-164	284
-122	-36
-90	-582
-72	-908
-172	-362
-386	696
-580	1518
-680	1898
-724	1362
-712	176
-658	-720
-634	-810
-622	-368
-558	306
-444	698
-346	644
-320	342
-334	64
-366	-38
-376	-132
-354	-466
-304	-562
-286	-72
-356	626
-428	1104
-394	1508
-280	1406
-160	720
-48	-142
30	-870
30	-976
-72	-356
-218	410
-328	976
-328	1366
