-356	518
-322	238
-250	-70
-152	-376
-38	-622
80	-786
192	-898
304	-932
390	-878
422	-744
400	-576
334	-356
236	-118
132	94
22	284
-72	478
-166	686
-264	814
-332	830
-374	728
-368	520
-320	250
-232	-70
-112	-376
18	-616
140	-778
248	-880
332	-906
366	-842
366	-720
324	-536
260	-318
182	-88
92	124
8	310
-82	500
-172	698
-264	822
-332	816
-350	702
-316	508
-242	242
-136	-70
-16	-382
108	-628
206	-784
272	-886
320	-906
332	-848
322	-718
284	-534
212	-314
130	-80
36	138
-50	312
-132	498
-204	698
-282	834
-340	838
-356	728
-326	516
-254	224
-154	-100
-38	-402
68	-630
152	-782
216	-874
256	-898
288	-838
320	-712
304	-534
262	-328
208	-102
134	100
48	294
-50	500
-158	704
-260	828
-326	824
-334	706
-296	494
-222	208
-120	-108
-4	-410
112	-648
206	-804
266	-922
300	-966
308	-930
270	-824
220	-638
174	-376
114	-88
52	158
-12	352
-74	548
-148	734
-240	844
-300	832
-324	708
-300	490
-238	204
-140	-114
-38	-416
70	-642
150	-792
206	-892
244	-908
256	-842
246	-708
214	-526
174	-314
132	-88
84	122
20	308
-52	514
-138	704
-228	826
-302	816
-324	700
-294	488
-236	212
-140	-102
-36	-402
68	-638
152	-790
218	-894
272	-910
290	-842
288	-716
266	-544
218	-350
146	-126
64	106
-18	302
-90	516
-160	718
-238	826
-290	802
-308	688
-292	486
-238	220
-154	-86
-48	-378
60	-612
154	-768
234	-876
292	-898
328	-842
332	-726
304	-566
242	-358
164	-126
80	60
10	146
-30	140
-50	106
-60	72
-54	58
-50	46
-42	24
-38	-4
-42	-30
-24	-62
-16	-96
0	-116
28	-138
54	-154
76	-158
82	-146
76	-138
72	-118
58	-110
50	-96
38	-88
18	-76
8	-64
-10	-46
-22	-38
-14	-40
-4	-52
12	-64
24	-92
26	-106
24	-128
18	-146
12	-172
4	-194
2	-206
10	-210
28	-200
34	-168
42	-132
40	-108
44	-88
30	-82
14	-70
-6	-56
-22	-40
-24	-36
-10	-48
16	-64
32	-88
40	-94
38	-116
20	-126
12	-144
22	-156
36	-166
54	-182
70	-182
84	-174
86	-160
80	-146
74	-132
56	-114
38	-108
24	-96
18	-82
20	-62
20	-54
20	-56
20	-72
18	-84
10	-108
6	-124
6	-136
2	-146
8	-144
20	-142
24	-136
28	-134
28	-134
16	-132
0	-118
-18	-102
-36	-80
-36	-66
-28	-56
-12	-60
10	-66
24	-66
40	-78
50	-88
54	-106
46	-118
48	-132
36	-140
44	-138
48	-146
52	-146
54	-142
46	-126
34	-102
20	-92
6	-96
0	-90
6	-74
2	-52
4	-44
4	-40
12	-58
26	-70
40	-80
50	-100
60	-120
68	-128
66	-132
64	-126
56	-126
46	-120
34	-116
26	-114
22	-104
10	-90
8	-78
8	-66
4	-62
14	-58
10	-56
12	-68
12	-84
18	-100
20	-92
28	-84
36	-84
34	-88
40	-98
36	-104
36	-108
36	-112
42	-118
52	-106
54	-100
52	-96
48	-100
44	-88
40	-72
30	-54
20	-42
10	-40
6	-42
12	-54
20	-72
30	-86
34	-100
32	-112
22	-122
20	-126
-8	-118
2	-106
-10	-94
-22	-94
-26	-110
-24	-124
-16	-112
-2	-82
14	-52
24	-30
28	-32
22	-22
8	-34
12	-62
32	-90
42	-108
46	-112
48	-110
60	-110
70	-106
76	-108
74	-110
68	-108
60	-100
54	-92
40	-90
36	-72
28	-62
18	-56
8	-44
-2	-38
-4	-40
-8	-44
-12	-48
-12	-68
-6	-74
-2	-84
14	-102
14	-118
12	-126
2	-128
8	-118
8	-106
22	-104
48	-106
68	-100
82	-92
80	-80
68	-70
44	-64
28	-60
12	-56
10	-50
10	-50
10	-58
18	-68
24	-82
36	-96
44	-108
48	-110
46	-110
52	-110
44	-112
38	-108
36	-102
32	-102
24	-92
14	-94
10	-86
2	-80
-12	-64
-26	-46
-38	-32
-56	-34
-52	-48
-38	-66
-18	-82
8	-102
28	-128
38	-140
54	-134
54	-124
50	-106
36	-92
20	-88
10	-90
8	-84
10	-78
8	-68
8	-72
18	-84
10	-84
8	-70
14	-66
14	-64
20	-78
24	-90
20	-102
24	-108
26	-104
14	-104
16	-100
20	-98
24	-102
28	-102
24	-98
20	-94
20	-86
14	-78
8	-72
4	-68
-6	-64
-10	-60
-14	-60
-22	-70
-26	-84
-28	-96
-34	-102
-24	-112
2	-116
12	-112
4	-106
-16	-100
-44	-100
-48	-94
-50	-86
-50	-88
-40	-82
-18	-80
22	-86
58	-92
80	-88
78	-86
62	-84
50	-78
36	-82
28	-88
20	-104
22	-112
16	-114
20	-118
22	-116
16	-118
16	-116
12	-112
10	-112
2	-104
-2	-98
-10	-88
-8	-82
2	-72
4	-70
8	-64
0	-68
-6	-68
-16	-80
-24	-86
-26	-104
-28	-116
-24	-116
-18	-118
-8	-122
6	-124
28	-130
32	-132
28	-130
26	-126
26	-116
20	-94
18	-80
22	-66
18	-60
20	-52
12	-62
12	-72
12	-78
4	-84
4	-102
6	-112
6	-124
12	-138
12	-136
10	-134
2	-128
-10	-120
-18	-106
-12	-96
-14	-88
-10	-80
-6	-74
-12	-76
-20	-82
-24	-78
-32	-64
-38	-72
-40	-86
-42	-108
-42	-124
-38	-134
-32	-126
-38	-110
-40	-88
-30	-88
-4	-92
32	-102
56	-104
64	-110
62	-112
46	-94
30	-78
16	-60
-14	-50
20	-50
6	-56
2	-70
-6	-80
-16	-90
-24	-102
-32	-118
-26	-124
-28	-126
-2	-130
22	-132
32	-130
36	-116
30	-108
26	-98
16	-100
6	-88
-2	-76
-10	-66
-26	-58
-28	-56
-36	-54
-38	-62
-48	-68
-50	-78
-60	-82
-56	-98
-58	-106
-50	-108
-30	-112
-12	-120
18	-120
22	-114
28	-116
24	-110
20	-98
8	-88
6	-78
-2	-64
-2	-62
-2	-54
-16	-72
-20	-84
-32	-96
-48	-92
-52	-90
-50	-98
-46	-98
-38	-106
-22	-110
-14	-112
4	-114
12	-112
14	-118
10	-118
-10	-106
-26	-92
-32	-72
-28	-56
-18	-50
-10	-48
4	-52
14	-64
20	-82
24	-100
20	-102
8	-102
-4	-110
-8	-116
-12	-114
-12	-106
-14	-104
-12	-96
-6	-100
-4	-100
-16	-98
-30	-88
-50	-66
-62	-46
-52	-34
-24	-36
12	-48
28	-58
38	-68
36	-78
36	-88
20	-102
22	-110
16	-118
18	-122
14	-120
14	-118
14	-110
10	-104
8	-106
4	-98
0	-94
-4	-84
-12	-74
-20	-64
-32	-62
-42	-60
-54	-72
-42	-82
-30	-92
-14	-92
4	-92
12	-96
22	-102
20	-102
18	-98
8	-100
0	-96
-2	-94
-4	-92
-6	-90
0	-78
-6	-66
-14	-58
-24	-54
-26	-54
-28	-58
-26	-66
-26	-72
-28	-74
-22	-78
-18	-82
-16	-88
-10	-94
-12	-96
-4	-106
-8	-108
-4	-100
0	-100
2	-104
0	-96
-8	-78
-14	-62
-22	-50
-28	-44
-28	-46
-24	-56
-24	-62
-24	-72
-24	-84
-22	-92
-18	-100
-12	-108
-8	-108
-2	-110
-2	-106
4	-106
0	-102
-4	-108
-8	-104
-12	-92
-22	-72
-36	-58
-44	-54
-54	-48
-66	-46
-62	-42
-58	-46
-42	-58
-42	-68
-36	-80
-22	-92
-4	-98
0	-110
18	-120
28	-128
34	-122
32	-120
26	-116
22	-114
14	-110
2	-98
-8	-88
-12	-78
-28	-66
-30	-60
-46	-70
-50	-82
-50	-96
-38	-88
-16	-94
8	-88
20	-92
24	-102
26	-112
20	-126
18	-132
14	-132
10	-118
6	-102
6	-92
4	-80
-2	-72
-6	-64
-12	-56
-16	-50
-18	-48
-24	-48
-24	-54
-28	-70
-26	-88
-18	-100
-18	-106
-12	-106
-6	-110
0	-110
0	-114
2	-108
-8	-112
-8	-108
0	-102
2	-90
0	-80
-4	-78
-10	-80
-12	-78
-16	-76
-18	-86
-16	-94
-18	-96
-14	-92
-24	-102
-26	-102
-28	-106
-32	-108
-24	-116
-14	-118
2	-118
4	-120
10	-120
6	-114
2	-108
-12	-98
-14	-86
-20	-78
-22	-70
-30	-66
-24	-68
-16	-70
-10	-82
2	-96
2	-110
10	-120
8	-124
6	-122
4	-112
2	-112
2	-114
0	-116
6	-116
6	-112
8	-100
-8	-88
-20	-74
-28	-64
-40	-62
-42	-56
-40	-54
-34	-64
-16	-88
2	-108
10	-118
16	-118
14	-118
10	-122
4	-120
2	-122
-6	-122
-10	-122
-14	-114
-10	-104
-16	-90
-20	-74
-10	-68
-4	-72
-2	-70
-12	-64
-16	-70
-20	-76
-22	-78
-30	-92
-32	-104
-34	-116
-26	-122
-12	-128
0	-126
4	-124
4	-126
10	-124
12	-120
22	-114
20	-102
18	-92
10	-84
4	-72
0	-70
-10	-62
-10	-64
-16	-68
-14	-72
-30	-80
-44	-90
-52	-102
-62	-112
-62	-118
-46	-122
-18	-124
0	-124
14	-128
22	-124
30	-118
40	-104
30	-86
20	-80
6	-76
-6	-70
-16	-56
-24	-54
-24	-56
-34	-72
-36	-84
-40	-96
-40	-104
-36	-102
-26	-104
-22	-110
-4	-120
16	-128
30	-138
34	-138
36	-130
30	-110
18	-100
8	-92
0	-74
-20	-66
-24	-56
-26	-68
-24	-70
-16	-82
-18	-102
-14	-120
-8	-128
-2	-132
2	-128
-2	-126
-2	-128
-4	-128
-4	-130
-8	-130
-8	-120
-16	-100
-16	-92
-24	-80
-28	-72
-24	-74
-22	-74
-24	-80
-22	-88
-26	-90
-28	-104
-24	-112
-18	-120
-14	-130
-12	-134
-16	-128
-16	-136
-12	-128
-6	-128
2	-134
2	-130
-6	-116
-4	-96
-2	-86
-12	-76
-8	-70
-10	-62
-12	-62
-14	-68
-12	-80
-16	-92
-8	-104
-6	-116
4	-124
0	-126
0	-136
-2	-134
0	-136
-2	-134
0	-124
0	-118
0	-104
0	-90
-4	-84
-6	-78
-10	-72
-14	-68
-16	-70
-22	-80
-20	-90
-20	-114
-4	-134
6	-148
14	-140
20	-130
20	-124
16	-122
6	-122
-2	-122
-12	-120
-18	-104
-30	-86
-42	-72
-42	-66
-28	-64
-4	-68
20	-70
18	-74
18	-90
24	-96
24	-100
20	-106
16	-112
18	-112
18	-120
24	-124
32	-128
24	-134
20	-128
10	-132
8	-122
2	-112
-4	-90
-12	-70
-2	-66
4	-66
14	-66
20	-76
12	-70
4	-82
0	-88
-2	-100
-12	-108
-18	-118
-18	-120
-26	-122
-34	-128
-26	-134
-10	-130
14	-134
22	-120
26	-108
16	-90
4	-88
0	-78
-2	-78
-16	-74
-36	-72
-32	-78
-24	-92
-6	-104
6	-108
14	-116
20	-120
30	-128
26	-128
22	-132
18	-134
14	-132
18	-134
22	-124
28	-118
26	-98
24	-80
20	-64
10	-62
6	-64
4	-68
2	-78
2	-90
4	-106
4	-114
18	-124
18	-126
26	-136
26	-136
28	-140
30	-150
40	-146
44	-142
40	-126
36	-112
24	-102
12	-86
-2	-76
-16	-74
-30	-74
-38	-80
-36	-88
-24	-98
-14	-110
2	-120
18	-130
36	-134
38	-144
40	-146
44	-142
42	-136
34	-134
24	-122
22	-116
22	-108
10	-96
0	-86
-20	-80
-28	-74
-32	-76
-28	-84
-22	-102
-2	-112
6	-118
14	-122
16	-136
22	-144
26	-148
26	-152
28	-146
20	-144
24	-138
22	-142
18	-128
12	-120
6	-108
4	-98
-8	-86
-18	-76
-30	-72
-34	-70
-30	-86
-24	-96
-20	-110
-18	-116
-16	-128
-12	-138
-6	-150
2	-150
16	-144
20	-136
18	-136
20	-126
12	-120
4	-110
2	-96
-2	-90
-6	-80
-10	-74
-20	-78
-22	-78
-24	-88
-34	-104
-54	-114
-54	-124
-76	-132
-84	-140
-74	-142
-48	-148
0	-156
42	-158
72	-154
80	-150
72	-138
66	-122
48	-110
32	-98
18	-90
14	-82
10	-76
2	-82
0	-88
2	-100
2	-112
4	-126
6	-134
12	-136
6	-138
8	-144
6	-146
0	-148
-4	-142
-4	-140
-12	-128
-20	-112
-32	-94
-40	-82
-52	-72
-60	-74
-64	-68
-54	-72
-32	-88
-14	-98
4	-110
22	-126
36	-132
40	-144
38	-144
32	-150
30	-154
26	-162
22	-228
44	-406
110	-560
172	-616
200	-596
198	-520
180	-446
150	-374
120	-316
94	-262
78	-232
62	-218
60	-222
68	-224
80	-218
82	-220
84	-216
84	-218
68	-216
64	-212
58	-202
62	-198
58	-182
66	-168
60	-152
52	-134
46	-120
40	-110
30	-112
26	-114
22	-118
18	-122
18	-132
20	-152
22	-158
24	-166
20	-158
24	-158
28	-160
36	-164
38	-172
40	-174
38	-164
28	-140
20	-118
8	-102
2	-94
-2	-80
-6	-78
-2	-78
-6	-82
0	-98
12	-110
16	-124
24	-138
34	-140
28	-140
20	-150
22	-152
24	-154
30	-166
36	-160
34	-158
34	-146
30	-128
24	-114
20	-98
10	-90
8	-86
-2	-80
0	-92
-10	-102
2	-118
-2	-138
2	-150
8	-160
14	-158
12	-152
2	-148
-10	-152
-24	-144
-30	-130
-34	-116
-38	-104
-34	-94
-18	-84
6	-92
20	-80
20	-76
10	-74
-8	-76
-22	-86
-30	-94
-28	-112
-4	-120
18	-130
32	-140
36	-140
42	-138
42	-148
46	-156
48	-160
48	-156
36	-136
22	-120
4	-108
-2	-98
-2	-90
-6	-72
-2	-66
-2	-64
-2	-82
4	-102
4	-116
4	-122
14	-128
8	-130
12	-136
8	-144
4	-144
4	-146
-2	-140
8	-130
8	-118
8	-104
6	-88
-4	-76
-14	-68
-18	-64
-20	-68
-24	-88
-20	-96
-20	-108
-18	-120
-14	-136
-8	-146
2	-150
10	-154
16	-150
14	-140
12	-142
12	-134
10	-124
-2	-108
-12	-96
-16	-86
-26	-84
-26	-82
-30	-80
-28	-80
-18	-84
-18	-92
-16	-98
-10	-110
-8	-114
-8	-120
-20	-134
-16	-132
-22	-134
-26	-138
-26	-142
-22	-138
-8	-136
4	-120
12	-108
8	-100
8	-84
-8	-78
-16	-74
-22	-80
-24	-82
-32	-100
-32	-122
-36	-138
-30	-146
-32	-150
-24	-154
-12	-160
4	-156
12	-146
20	-140
18	-132
16	-114
10	-102
2	-94
-10	-84
-20	-80
-28	-74
-28	-78
-18	-80
-18	-86
-14	-96
-12	-116
-10	-130
-8	-140
-6	-146
-8	-150
-16	-148
-16	-146
-18	-146
-20	-154
-8	-146
-4	-136
6	-130
16	-116
14	-100
12	-84
2	-72
-8	-72
-18	-70
-20	-82
-18	-100
-14	-106
-12	-116
-10	-126
-2	-134
0	-138
0	-146
4	-148
2	-150
8	-158
2	-148
10	-136
2	-118
0	-96
-12	-82
-26	-68
-34	-58
-46	-62
-46	-66
-52	-80
-48	-88
-40	-104
-22	-114
-14	-122
-8	-140
-2	-148
-2	-152
0	-148
6	-150
-2	-148
-14	-142
-26	-126
-30	-116
-46	-104
-60	-94
-74	-78
-84	-68
-76	-64
-56	-72
-42	-88
-18	-108
-4	-118
6	-124
12	-138
12	-138
12	-146
4	-148
4	-142
-2	-140
0	-138
-2	-138
-2	-134
-10	-120
-22	-104
-38	-92
-64	-86
-80	-82
-90	-80
-86	-86
-72	-96
-48	-106
-22	-120
2	-138
20	-144
24	-144
22	-148
14	-156
10	-160
10	-160
14	-158
12	-148
8	-132
0	-114
-14	-98
-22	-88
-32	-74
-30	-74
-22	-76
-20	-82
-8	-88
-4	-98
-8	-114
0	-134
6	-146
12	-146
4	-150
0	-152
0	-146
-6	-150
-6	-154
0	-148
12	-142
20	-128
20	-112
10	-104
0	-92
-8	-90
-8	-92
-14	-94
-14	-96
-12	-124
-4	-148
4	-166
12	-162
14	-156
14	-158
14	-148
6	-144
-4	-134
-8	-130
-10	-126
-20	-120
-22	-106
-20	-98
-4	-88
14	-88
24	-92
26	-96
24	-102
22	-112
12	-120
14	-134
10	-144
16	-156
20	-160
22	-154
14	-154
18	-150
16	-142
16	-142
14	-138
12	-118
8	-108
-2	-100
-8	-90
-8	-86
-10	-88
-18	-90
-12	-100
-18	-114
-8	-128
-6	-152
-2	-158
4	-162
16	-164
22	-158
28	-160
28	-160
26	-168
26	-166
28	-150
26	-126
20	-114
12	-98
4	-88
0	-88
-2	-94
-4	-96
-2	-108
-2	-110
4	-124
10	-132
8	-142
12	-148
14	-152
10	-160
4	-160
-8	-162
-16	-162
-32	-156
-34	-148
-30	-136
-26	-122
-12	-116
4	-108
16	-92
22	-98
22	-98
20	-102
22	-124
26	-134
22	-142
24	-152
32	-154
36	-164
40	-164
40	-160
36	-154
36	-146
34	-140
26	-134
30	-126
22	-114
14	-108
12	-104
8	-96
6	-98
0	-96
2	-110
0	-120
6	-128
8	-142
14	-158
20	-166
22	-174
18	-168
16	-166
18	-170
20	-166
22	-158
20	-144
20	-134
18	-114
16	-104
10	-96
6	-94
8	-88
0	-98
0	-104
2	-116
-2	-140
6	-158
10	-164
14	-164
24	-156
26	-158
28	-168
32	-170
34	-170
32	-164
30	-146
24	-130
20	-108
18	-98
10	-96
4	-92
4	-94
0	-108
2	-116
4	-120
8	-126
4	-144
8	-150
10	-152
12	-156
16	-160
14	-166
16	-158
20	-160
20	-150
16	-146
16	-128
16	-114
12	-106
12	-108
6	-106
2	-102
-2	-98
0	-104
-2	-106
-2	-114
8	-138
10	-150
14	-150
16	-154
20	-166
22	-168
24	-162
22	-154
20	-148
20	-144
16	-130
14	-118
6	-106
4	-98
-2	-96
-2	-90
-12	-100
-14	-104
-14	-118
-10	-130
-6	-140
-2	-146
-10	-152
-16	-158
-18	-164
-16	-168
-18	-166
0	-164
22	-158
36	-154
50	-138
56	-132
54	-124
46	-112
30	-108
20	-100
12	-98
4	-98
2	-102
-6	-114
-2	-134
6	-152
10	-152
14	-154
20	-150
20	-146
26	-150
24	-150
30	-152
26	-148
30	-136
20	-134
14	-118
8	-106
6	-100
4	-94
2	-96
-4	-102
-2	-122
0	-136
8	-154
8	-158
16	-166
24	-170
28	-176
30	-176
30	-176
28	-172
34	-166
32	-162
32	-146
26	-142
22	-132
16	-122
10	-116
8	-118
4	-118
4	-124
8	-128
14	-142
14	-150
20	-152
22	-156
28	-156
28	-156
22	-162
24	-164
20	-168
28	-166
28	-170
28	-150
22	-140
16	-116
8	-108
8	-102
0	-102
2	-116
2	-124
10	-136
4	-136
10	-146
12	-146
12	-156
18	-160
14	-164
22	-168
26	-168
28	-164
32	-158
34	-150
32	-142
26	-128
20	-114
8	-108
2	-102
-4	-104
-18	-106
-30	-110
-36	-114
-42	-124
-32	-132
-18	-138
12	-156
42	-174
66	-184
80	-192
76	-186
76	-188
68	-184
56	-172
56	-148
38	-138
30	-120
20	-110
16	-90
8	-98
-2	-110
-6	-114
-6	-118
4	-134
18	-142
26	-146
28	-152
34	-174
40	-182
38	-190
38	-180
40	-170
34	-170
40	-160
34	-150
30	-136
26	-118
16	-116
10	-104
8	-106
6	-112
6	-122
12	-138
18	-160
24	-176
26	-178
28	-180
28	-178
28	-176
32	-182
34	-192
36	-192
36	-186
40	-164
34	-150
28	-138
24	-128
16	-124
12	-114
14	-116
4	-118
4	-124
2	-134
2	-150
8	-168
12	-176
18	-182
26	-180
22	-182
24	-186
26	-192
24	-198
26	-198
30	-182
30	-172
26	-158
18	-156
14	-142
12	-126
4	-116
-2	-118
-6	-116
-6	-126
-2	-142
-2	-156
4	-172
10	-180
6	-202
16	-196
16	-192
18	-194
12	-200
18	-192
8	-172
2	-152
0	-134
-4	-130
-6	-122
-8	-124
-16	-122
-18	-120
-22	-126
-22	-138
-16	-156
-12	-168
-2	-174
12	-176
12	-188
22	-190
24	-192
22	-188
22	-178
22	-172
12	-160
4	-146
-6	-130
-24	-120
-40	-118
-52	-110
-54	-106
-56	-112
-44	-120
-22	-144
0	-158
24	-180
40	-188
38	-192
34	-198
28	-196
22	-198
18	-194
10	-196
6	-192
0	-190
2	-174
4	-156
14	-136
18	-124
10	-106
10	-106
2	-120
-4	-134
-2	-152
2	-166
4	-174
8	-176
4	-174
4	-174
0	-176
-2	-182
2	-184
2	-190
8	-190
12	-176
12	-160
10	-138
6	-130
0	-132
-2	-130
-2	-130
-4	-132
-4	-134
-4	-148
-6	-160
-4	-172
2	-176
8	-178
6	-182
6	-182
8	-182
6	-194
14	-182
6	-178
12	-168
10	-154
16	-142
8	-138
8	-130
4	-130
0	-128
0	-130
-10	-134
-10	-144
-10	-154
-4	-164
0	-162
-2	-170
6	-176
12	-190
18	-192
20	-196
22	-198
20	-194
18	-178
22	-154
12	-142
4	-128
0	-118
-14	-116
-20	-118
-30	-124
-34	-130
-42	-136
-40	-150
-40	-166
-26	-188
-2	-194
14	-194
28	-192
28	-184
24	-178
18	-180
14	-180
12	-166
6	-150
-4	-150
-14	-140
-20	-146
-24	-134
-28	-120
-36	-122
-32	-136
-36	-150
-32	-166
-30	-168
-18	-180
-2	-188
12	-190
18	-186
20	-190
22	-190
22	-190
16	-188
12	-174
6	-156
0	-136
-6	-132
-12	-124
-16	-124
-20	-124
-18	-130
-26	-132
-24	-142
-22	-156
-22	-170
-12	-188
-10	-194
-8	-192
-6	-192
-6	-190
-8	-184
-10	-182
-12	-188
-4	-180
-8	-170
-10	-148
-8	-136
-14	-122
-16	-122
-24	-120
-26	-134
-24	-138
-22	-156
-18	-162
-16	-178
-12	-186
-8	-190
-6	-192
-4	-196
-6	-188
-8	-188
-10	-184
-12	-178
-20	-172
-18	-162
-26	-144
-36	-138
-28	-140
-30	-136
-26	-140
-28	-142
-26	-148
-34	-154
-36	-162
-32	-176
-28	-186
-18	-188
-14	-188
-8	-194
-2	-188
-8	-190
-6	-196
-6	-188
-14	-176
-20	-152
-26	-136
-34	-126
-34	-124
-32	-128
-28	-142
-30	-156
-30	-170
-36	-174
-36	-184
-34	-184
-32	-194
-28	-202
-28	-206
-28	-204
-28	-200
-30	-204
-36	-200
-34	-192
-40	-182
-36	-168
-40	-168
-38	-158
-32	-142
-32	-130
-44	-128
-48	-132
-50	-146
-46	-154
-40	-168
-38	-182
-30	-196
-28	-198
-28	-204
-30	-206
-32	-206
-30	-206
-24	-208
-24	-214
-22	-198
-22	-180
-28	-164
-32	-152
-40	-140
-56	-132
-72	-136
-80	-140
-84	-150
-90	-164
-82	-182
-76	-190
-70	-196
-50	-198
-34	-208
-24	-206
-18	-208
-16	-210
-18	-210
-20	-204
-22	-192
-26	-176
-36	-168
-42	-158
-48	-148
-48	-140
-56	-144
-56	-150
-58	-160
-58	-172
-52	-188
-52	-204
-48	-210
-48	-218
-44	-224
-42	-208
-40	-202
-46	-192
-46	-198
-48	-188
-54	-184
-62	-168
-68	-156
-78	-142
-82	-140
-82	-136
-80	-138
-74	-152
-62	-154
-54	-172
-46	-186
-38	-196
-34	-198
-34	-208
-32	-210
-30	-206
-40	-202
-42	-198
-38	-198
-40	-202
-40	-200
-46	-186
-48	-160
-48	-144
-62	-134
-66	-126
-70	-134
-76	-144
-68	-150
-70	-164
-70	-180
-64	-192
-66	-200
-64	-196
-62	-202
-62	-200
-60	-202
-58	-200
-62	-198
-60	-194
-56	-186
-62	-168
-64	-162
-62	-160
-68	-158
-70	-146
-74	-148
-78	-144
-78	-154
-76	-166
-76	-176
-76	-182
-70	-200
-64	-198
-66	-206
-54	-206
-56	-212
-48	-208
-50	-202
-46	-196
-48	-186
-50	-166
-60	-142
-66	-130
-76	-122
-78	-120
-78	-120
-82	-134
-80	-144
-76	-158
-76	-176
-70	-180
-68	-190
-62	-196
-60	-198
-60	-204
-56	-200
-58	-204
-56	-202
-54	-200
-58	-182
-58	-168
-70	-156
-76	-142
-82	-134
-80	-126
-86	-128
-94	-132
-94	-138
-96	-156
-90	-180
-86	-194
-76	-202
-70	-200
-62	-200
-62	-202
-72	-198
-72	-200
-70	-194
-72	-190
-68	-178
-72	-160
-74	-152
-76	-142
-82	-130
-86	-126
-94	-130
-94	-144
-92	-152
-86	-162
-88	-170
-86	-178
-92	-186
-86	-190
-92	-194
-74	-194
-76	-196
-74	-194
-76	-188
-80	-184
-92	-158
-102	-150
-110	-136
-118	-134
-120	-134
-120	-132
-112	-136
-100	-148
-84	-154
-72	-156
-78	-160
-78	-170
-84	-178
-84	-184
-76	-190
-72	-198
-64	-198
-58	-196
-66	-190
-60	-186
-68	-174
-66	-160
-74	-146
-80	-140
-88	-126
-90	-130
-96	-136
-96	-144
-100	-156
-100	-168
-98	-184
-88	-194
-86	-200
-88	-208
-86	-208
-84	-202
-86	-204
-82	-208
-82	-202
-76	-198
-78	-178
-82	-156
-82	-142
-94	-134
-98	-124
-102	-122
-104	-128
-108	-140
-106	-154
-110	-168
-104	-182
-108	-188
-104	-190
-100	-188
-98	-184
-94	-190
-92	-192
-88	-192
-80	-186
-80	-180
-82	-164
-82	-152
-90	-136
-94	-124
-100	-118
-100	-124
-102	-126
-106	-130
-104	-136
-104	-150
-104	-162
-102	-170
-104	-174
-102	-174
-102	-176
-98	-178
-88	-178
-86	-176
-92	-178
-90	-172
-92	-158
-98	-138
-104	-126
-106	-114
-114	-114
-116	-112
-122	-118
-124	-126
-124	-142
-118	-154
-112	-168
-112	-176
-108	-178
-108	-184
-104	-188
-98	-182
-98	-178
-100	-180
-100	-176
-102	-170
-102	-162
-104	-148
-108	-136
-114	-122
-124	-122
-122	-118
-130	-114
-128	-126
-128	-134
-130	-154
-126	-172
-128	-186
-130	-194
-132	-194
-136	-192
-138	-186
-132	-180
-130	-180
-114	-178
-116	-170
-94	-160
-96	-144
-100	-132
-110	-128
-116	-122
-124	-124
-134	-122
-144	-124
-144	-134
-140	-142
-138	-154
-132	-162
-128	-172
-116	-182
-112	-186
-110	-182
-108	-186
-108	-184
-110	-176
-112	-176
-110	-160
-116	-146
-122	-134
-126	-132
-132	-128
-136	-132
-136	-126
-138	-128
-142	-138
-140	-150
-140	-166
-134	-180
-126	-192
-116	-202
-114	-200
-114	-188
-114	-184
-114	-182
-112	-180
-108	-172
-114	-160
-120	-152
-118	-142
-122	-134
-122	-126
-132	-126
-134	-122
-140	-128
-138	-138
-134	-152
-134	-164
-132	-174
-130	-182
-122	-188
-112	-192
-112	-194
-112	-190
-110	-190
-108	-194
-108	-188
-112	-182
-116	-164
-120	-146
-128	-130
-136	-124
-142	-126
-148	-124
-148	-126
-148	-140
-144	-156
-142	-170
-134	-180
-130	-184
-132	-182
-128	-180
-124	-184
-120	-190
-118	-192
-118	-190
-120	-182
-114	-162
-122	-146
-130	-134
-140	-120
-154	-116
-152	-120
-154	-130
-154	-136
-152	-136
-148	-150
-142	-160
-140	-170
-134	-180
-132	-180
-130	-182
-132	-180
-128	-178
-120	-180
-120	-184
-122	-178
-124	-164
-124	-144
-132	-134
-140	-124
-142	-120
-148	-118
-148	-124
-150	-130
-148	-144
-150	-152
-144	-160
-144	-168
-142	-178
-138	-182
-130	-188
-128	-186
-126	-186
-128	-186
-132	-176
-128	-168
-126	-148
-132	-136
-134	-124
-138	-114
-138	-116
-140	-114
-148	-118
-144	-120
-156	-130
-148	-138
-146	-152
-142	-160
-144	-168
-140	-168
-136	-172
-132	-178
-130	-178
-132	-176
-130	-174
-134	-162
-134	-152
-140	-144
-142	-140
-136	-140
-136	-128
-138	-114
-150	-108
-154	-110
-158	-120
-162	-130
-154	-144
-150	-158
-148	-168
-140	-166
-142	-166
-140	-164
-144	-166
-150	-160
-156	-164
-160	-162
-162	-148
-162	-134
-164	-122
-148	-106
-142	-100
-138	-98
-138	-106
-148	-112
-152	-130
-148	-136
-148	-148
-152	-164
-148	-174
-146	-174
-146	-168
-142	-168
-138	-178
-140	-174
-136	-168
-142	-154
-142	-136
-152	-124
-158	-118
-168	-104
-170	-98
-172	-100
-176	-102
-176	-108
-176	-124
-174	-138
-162	-148
-154	-156
-154	-160
-148	-168
-146	-172
-142	-176
-146	-182
-150	-170
-150	-170
-150	-164
-148	-148
-154	-132
-156	-116
-166	-102
-174	-102
-174	-104
-176	-112
-178	-114
-176	-130
-174	-148
-158	-158
-154	-160
-160	-168
-158	-158
-160	-156
-174	-152
-170	-152
-168	-152
-166	-152
-166	-140
-160	-136
-156	-124
-156	-112
-160	-104
-156	-106
-168	-96
-178	-102
-182	-102
-182	-116
-182	-128
-176	-142
-172	-156
-168	-162
-166	-160
-162	-158
-162	-158
-160	-154
-160	-152
-158	-150
-154	-138
-150	-126
-156	-120
-158	-108
-166	-102
-172	-88
-180	-82
-184	-92
-184	-106
-182	-118
-182	-130
-178	-138
-172	-148
-168	-150
-164	-150
-170	-154
-170	-150
-170	-150
-166	-150
-162	-146
-152	-144
-164	-140
-154	-124
-164	-114
-172	-108
-176	-100
-182	-96
-180	-102
-186	-112
-182	-120
-184	-136
-178	-144
-176	-148
-172	-154
-174	-160
-164	-164
-164	-160
-160	-156
-164	-152
-162	-154
-160	-144
-162	-138
-168	-122
-176	-100
-182	-90
-188	-82
-184	-82
-184	-88
-184	-96
-186	-104
-186	-116
-184	-128
-180	-136
-178	-144
-176	-148
-178	-154
-182	-162
-186	-166
-190	-164
-194	-150
-206	-132
-216	-116
-210	-90
-196	-84
-178	-86
-164	-88
-160	-94
-158	-100
-164	-100
-170	-110
-170	-122
-180	-144
-176	-144
-178	-154
-180	-146
-178	-144
-180	-146
-182	-148
-186	-144
-188	-138
-192	-134
-194	-120
-192	-110
-190	-102
-186	-96
-186	-96
-174	-98
-176	-102
-178	-104
-182	-114
-188	-130
-184	-140
-184	-144
-182	-156
-180	-162
-178	-162
-176	-154
-182	-140
-184	-136
-180	-130
-184	-124
-178	-116
-174	-102
-186	-92
-190	-82
-198	-80
-196	-74
-206	-82
-202	-92
-204	-104
-206	-124
-200	-130
-198	-146
-190	-142
-188	-140
-186	-136
-184	-132
-188	-138
-190	-140
-184	-144
-188	-134
-190	-114
-190	-100
-194	-90
-200	-88
-206	-78
-214	-82
-214	-88
-214	-102
-214	-106
-210	-120
-210	-134
-206	-142
-204	-150
-196	-152
-198	-154
-192	-156
-196	-148
-194	-142
-192	-138
-190	-126
-190	-110
-192	-98
-196	-90
-206	-84
-210	-82
-216	-84
-212	-84
-216	-92
-206	-110
-194	-124
-186	-132
-182	-140
-180	-138
-180	-140
-180	-138
-182	-144
-190	-140
-198	-140
-206	-134
-204	-126
-210	-110
-214	-104
-216	-94
-204	-84
-192	-78
-192	-82
-192	-82
-188	-96
-192	-106
-196	-120
-196	-130
-194	-138
-190	-142
-188	-150
-188	-146
-188	-148
-184	-142
-184	-136
-180	-134
-182	-124
-180	-110
-184	-104
-192	-96
-198	-76
-212	-74
-220	-70
-224	-68
-228	-74
-226	-90
-218	-104
-206	-118
-190	-126
-188	-132
-190	-136
-192	-138
-192	-130
-196	-132
-200	-132
-196	-132
-192	-120
-190	-104
-188	-90
-190	-82
-196	-74
-208	-70
-214	-70
-216	-76
-218	-86
-220	-96
-214	-108
-208	-118
-202	-118
-194	-128
-194	-134
-192	-134
-196	-136
-190	-138
-194	-136
-194	-130
-186	-120
-190	-106
-192	-90
-198	-78
-200	-72
-208	-64
-208	-74
-214	-74
-212	-78
-208	-90
-202	-112
-198	-116
-200	-124
-194	-132
-194	-138
-192	-142
-192	-136
-192	-126
-196	-118
-200	-114
-200	-104
-200	-102
-202	-94
-204	-84
-212	-76
-214	-70
-222	-66
-224	-68
-224	-70
-226	-86
-218	-98
-218	-108
-210	-114
-210	-120
-204	-124
-206	-124
-198	-122
-200	-128
-202	-124
-200	-124
-200	-114
-194	-96
-200	-84
-210	-64
-216	-58
-214	-58
-216	-64
-212	-68
-214	-76
-214	-90
-210	-100
-210	-110
-204	-118
-198	-120
-202	-126
-198	-126
-194	-128
-194	-130
-196	-132
-206	-130
-214	-112
-222	-90
-236	-72
-240	-58
-242	-56
-232	-56
-222	-62
-210	-70
-198	-78
-188	-98
-186	-106
-186	-116
-186	-120
-194	-120
-188	-120
-194	-118
-194	-120
-194	-122
-190	-124
-194	-124
-196	-104
-198	-94
-204	-80
-212	-72
-222	-70
-222	-58
-222	-60
-216	-66
-216	-68
-212	-78
-214	-86
-212	-94
-212	-100
-206	-110
-210	-116
-204	-118
-198	-116
-192	-118
-190	-120
-188	-110
-194	-104
-206	-86
-214	-76
-216	-64
-220	-52
-220	-52
-214	-46
-214	-48
-210	-58
-204	-66
-202	-84
-196	-94
-194	-102
-194	-106
-188	-112
-192	-114
-186	-116
-190	-116
-188	-110
-188	-102
-188	-92
-186	-80
-188	-72
-194	-52
-206	-50
-206	-44
-208	-48
-210	-50
-212	-60
-206	-66
-206	-84
-210	-94
-208	-100
-206	-106
-200	-108
-190	-106
-190	-106
-186	-102
-182	-108
-186	-104
-184	-98
-184	-84
-190	-68
-198	-58
-206	-42
-212	-42
-220	-42
-220	-54
-216	-70
-212	-80
-210	-88
-202	-100
-202	-106
-192	-114
-188	-112
-192	-112
-188	-104
-198	-104
-190	-98
-194	-90
-198	-80
-200	-68
-206	-56
-212	-48
-216	-36
-214	-36
-218	-36
-218	-50
-214	-62
-210	-76
-210	-86
-210	-92
-206	-96
-204	-108
-200	-108
-200	-110
-204	-110
-200	-116
-198	-120
-200	-114
-204	-104
-212	-86
-228	-68
-240	-56
-248	-46
-254	-38
-242	-44
-226	-56
-208	-68
-196	-86
-188	-98
-182	-100
-182	-104
-186	-106
-188	-106
-190	-104
-196	-102
-194	-96
-194	-94
-198	-94
-196	-82
-196	-68
-200	-60
-210	-50
-214	-42
-216	-40
-220	-42
-226	-44
-230	-56
-232	-70
-228	-80
-230	-94
-220	-104
-210	-110
-206	-110
-204	-120
-202	-108
-206	-106
-198	-106
-198	-102
-190	-86
-192	-78
-190	-68
-192	-56
-204	-50
-210	-44
-210	-44
-220	-44
-224	-56
-222	-62
-212	-82
-214	-96
-210	-104
-208	-108
-206	-110
-204	-112
-198	-110
-202	-104
-200	-104
-200	-98
-198	-86
-204	-74
-206	-54
-208	-46
-210	-44
-216	-44
-214	-48
-216	-50
-218	-60
-216	-70
-216	-84
-214	-96
-224	-104
-206	-106
-204	-110
-198	-108
-196	-106
-194	-108
-192	-104
-190	-100
-188	-84
-196	-66
-200	-58
-210	-48
-210	-40
-214	-36
-212	-42
-214	-48
-212	-58
-216	-68
-216	-74
-214	-86
-214	-92
-214	-98
-214	-102
-210	-110
-210	-100
-202	-104
-192	-100
-186	-94
-184	-88
-186	-74
-192	-60
-196	-48
-204	-38
-206	-38
-214	-36
-212	-44
-214	-56
-210	-74
-210	-82
-208	-96
-200	-102
-194	-104
-194	-106
-190	-104
-196	-100
-190	-100
-198	-96
-188	-92
-196	-84
-196	-76
-200	-66
-202	-54
-208	-44
-208	-38
-208	-36
-212	-40
-208	-48
-210	-64
-208	-80
-200	-98
-198	-106
-188	-114
-188	-116
-188	-118
-182	-102
-190	-96
-188	-88
-192	-92
-192	-82
-196	-60
-190	-46
-202	-40
-202	-34
-206	-32
-210	-34
-216	-38
-214	-50
-212	-60
-210	-72
-208	-82
-204	-92
-192	-98
-198	-102
-194	-102
-188	-104
-200	-102
-200	-108
-204	-102
-214	-92
-220	-74
-224	-54
-232	-44
-228	-38
-216	-34
-212	-32
-202	-38
-202	-48
-198	-60
-194	-76
-192	-88
-182	-92
-180	-94
-176	-100
-174	-100
-172	-94
-172	-92
-170	-88
-170	-88
-172	-70
-178	-58
-184	-42
-192	-38
-200	-32
-204	-30
-206	-38
-206	-46
-204	-58
-206	-66
-206	-76
-200	-82
-200	-94
-192	-102
-186	-98
-180	-96
-184	-94
-182	-94
-186	-96
-182	-80
-184	-64
-188	-58
-192	-50
-194	-40
-196	-30
-198	-24
-208	-22
-212	-28
-214	-38
-210	-56
-206	-64
-206	-84
-206	-88
-198	-94
-192	-90
-190	-94
-184	-98
-182	-100
-178	-98
-170	-92
-170	-84
-174	-78
-174	-66
-180	-52
-190	-32
-198	-34
-202	-40
-204	-44
-206	-52
-204	-68
-196	-80
-192	-98
-186	-102
-184	-102
-186	-96
-176	-100
-186	-106
-174	-104
-174	-98
-178	-88
-184	-82
-184	-62
-188	-48
-192	-40
-196	-36
-192	-34
-196	-36
-198	-34
-196	-44
-200	-58
-194	-74
-190	-86
-184	-92
-182	-102
-176	-100
-178	-100
-174	-98
-176	-102
-172	-94
-170	-86
-172	-72
-178	-58
-180	-48
-184	-38
-184	-32
-186	-26
-192	-38
-192	-40
-190	-60
-190	-70
-186	-78
-180	-88
-176	-94
-176	-100
-178	-104
-174	-100
-168	-100
-170	-96
-164	-98
-166	-90
-162	-76
-166	-60
-172	-52
-174	-42
-176	-36
-180	-30
-184	-34
-188	-40
-190	-54
-188	-68
-190	-82
-192	-92
-188	-94
-194	-102
-192	-98
-190	-98
-186	-98
-176	-96
-168	-90
-156	-86
-156	-80
-158	-66
-158	-58
-162	-50
-168	-42
-168	-38
-172	-38
-178	-42
-178	-48
-172	-66
-180	-82
-174	-90
-168	-90
-168	-92
-172	-90
-172	-92
-176	-92
-178	-94
-170	-96
-168	-86
-168	-70
-178	-52
-178	-44
-180	-38
-178	-32
-176	-32
-182	-32
-184	-34
-182	-44
-180	-58
-182	-76
-182	-90
-180	-94
-182	-96
-184	-96
-186	-92
-178	-96
-176	-96
-162	-94
-154	-90
-152	-70
-156	-54
-152	-50
-160	-46
-180	-36
-176	-26
-180	-22
-186	-28
-188	-38
-186	-54
-182	-66
-178	-82
-172	-90
-168	-96
-168	-100
-164	-96
-160	-88
-162	-92
-160	-90
-158	-86
-162	-66
-162	-54
-166	-44
-170	-34
-172	-26
-182	-32
-182	-32
-180	-42
-180	-56
-180	-72
-172	-82
-166	-94
-164	-90
-162	-88
-166	-94
-164	-90
-164	-88
-158	-84
-154	-84
-154	-78
-158	-70
-160	-58
-162	-44
-172	-40
-172	-26
-180	-28
-184	-24
-182	-30
-176	-44
-178	-56
-170	-70
-170	-84
-162	-88
-154	-90
-152	-92
-150	-88
-154	-88
-158	-84
-154	-84
-150	-72
-152	-58
-158	-42
-166	-28
-172	-22
-178	-18
-180	-14
-180	-18
-174	-30
-174	-42
-172	-54
-166	-64
-170	-76
-172	-80
-170	-86
-178	-90
-180	-100
-174	-94
-172	-92
-162	-86
-148	-82
-132	-72
-134	-62
-136	-50
-148	-34
-166	-28
-170	-28
-174	-28
-180	-34
-180	-48
-182	-60
-178	-74
-178	-82
-178	-98
-170	-108
-154	-106
-148	-104
-138	-96
-130	-92
-130	-84
-134	-76
-136	-62
-142	-44
-150	-34
-158	-28
-166	-26
-170	-32
-174	-32
-174	-42
-168	-48
-168	-56
-166	-72
-158	-74
-160	-86
-160	-98
-156	-102
-150	-104
-154	-106
-152	-96
-152	-86
-150	-80
-148	-72
-150	-52
-148	-36
-158	-28
-160	-22
-162	-28
-172	-26
-166	-30
-172	-40
-168	-50
-160	-66
-160	-84
-156	-88
-158	-86
-160	-90
-156	-86
-160	-94
-158	-92
-162	-82
-152	-72
-146	-64
-150	-50
-146	-34
-148	-28
-152	-22
-150	-22
-156	-28
-160	-30
-164	-42
-158	-50
-160	-66
-156	-78
-148	-82
-150	-84
-144	-82
-148	-80
-148	-66
-142	-76
-140	-70
-136	-62
-140	-46
-140	-34
-150	-28
-152	-24
-156	-18
-158	-16
-156	-16
-158	-22
-156	-30
-156	-40
-150	-52
-146	-66
-146	-80
-136	-78
-138	-76
-136	-74
-138	-70
-132	-76
-134	-74
-130	-66
-132	-54
-138	-36
-140	-26
-142	-18
-148	-14
-152	-12
-160	-14
-156	-24
-158	-32
-156	-46
-150	-60
-152	-74
-146	-86
-140	-86
-138	-92
-140	-92
-138	-94
-132	-88
-134	-84
-126	-70
-126	-54
-130	-38
-138	-32
-140	-22
-146	-16
-150	-20
-148	-24
-150	-36
-152	-50
-148	-58
-144	-60
-140	-62
-134	-68
-128	-70
-132	-72
-130	-82
-134	-82
-126	-82
-130	-76
-128	-56
-134	-32
-146	-30
-148	-18
-158	-8
-154	-2
-150	-4
-146	-12
-140	-22
-140	-26
-140	-44
-136	-56
-140	-62
-134	-72
-132	-76
-128	-88
-122	-92
-116	-90
-124	-82
-132	-70
-148	-56
-162	-48
-160	-32
-162	-30
-156	-20
-146	-8
-140	-4
-126	-8
-128	-18
-130	-26
-130	-38
-132	-48
-128	-62
-124	-76
-122	-78
-126	-80
-124	-72
-130	-70
-126	-68
-124	-68
-124	-60
-124	-48
-124	-34
-136	-24
-136	-20
-146	-10
-148	-10
-150	-14
-148	-16
-144	-30
-138	-44
-132	-52
-134	-70
-128	-82
-126	-88
-122	-84
-116	-80
-122	-68
-116	-60
-120	-54
-122	-46
-120	-32
-132	-28
-134	-20
-136	-8
-138	-2
-144	-8
-148	-10
-150	-20
-150	-34
-150	-48
-138	-52
-136	-66
-132	-68
-130	-72
-128	-76
-128	-76
-120	-76
-114	-70
-114	-64
-114	-60
-118	-48
-120	-36
-124	-16
-134	-8
-134	-4
-144	-2
-148	-6
-146	-16
-142	-32
-142	-40
-134	-52
-136	-60
-130	-66
-126	-70
-122	-74
-120	-74
-122	-72
-116	-76
-116	-70
-116	-58
-114	-42
-118	-28
-124	-14
-126	-8
-134	-2
-134	0
-142	-10
-142	-18
-138	-28
-134	-38
-138	-52
-130	-66
-130	-76
-122	-78
-120	-82
-118	-78
-114	-70
-116	-68
-116	-66
-118	-58
-118	-42
-130	-28
-128	-18
-134	-10
-138	-4
-154	-6
-146	-6
-142	-22
-130	-42
-124	-58
-122	-68
-120	-84
-120	-94
-116	-86
-116	-84
-112	-78
-110	-68
-110	-62
-106	-54
-108	-46
-108	-34
-116	-24
-118	-16
-124	-8
-134	-8
-134	-4
-144	-8
-142	-22
-142	-30
-146	-46
-134	-64
-134	-70
-128	-76
-128	-68
-116	-66
-112	-66
-102	-64
-106	-62
-108	-56
-112	-42
-130	-34
-138	-18
-144	-18
-146	-8
-150	4
-152	12
-148	8
-130	-12
-122	-26
-118	-42
-110	-52
-110	-64
-108	-80
-104	-76
-110	-80
-108	-82
-106	-80
-108	-76
-106	-76
-110	-58
-114	-34
-118	-20
-122	-12
-126	-6
-126	-12
-128	-10
-132	-12
-138	-18
-138	-24
-140	-40
-138	-52
-138	-64
-134	-74
-130	-78
-120	-78
-118	-78
-112	-74
-108	-76
-106	-66
-106	-56
-112	-42
-116	-30
-120	-14
-128	-10
-126	-10
-128	-14
-124	-18
-128	-26
-126	-34
-124	-48
-128	-66
-124	-82
-126	-82
-120	-84
-118	-84
-114	-86
-116	-92
-108	-84
-98	-78
-98	-60
-106	-44
-108	-28
-110	-18
-120	-12
-118	-8
-132	-12
-124	-10
-126	-18
-120	-30
-126	-48
-122	-60
-116	-74
-112	-78
-106	-76
-104	-80
-102	-78
-96	-78
-96	-80
-96	-76
-96	-62
-94	-46
-100	-32
-106	-20
-108	-6
-112	-2
-118	-2
-116	-8
-116	-18
-118	-32
-116	-50
-114	-60
-110	-72
-104	-78
-102	-86
-100	-80
-96	-80
-94	-78
-92	-76
-94	-70
-92	-56
-94	-44
-104	-34
-102	-12
-118	-10
-120	-4
-122	-6
-124	-14
-122	-22
-118	-40
-114	-48
-104	-62
-104	-68
-100	-72
-104	-72
-96	-72
-96	-72
-98	-78
-96	-78
-90	-74
-96	-60
-98	-50
-108	-38
-122	-34
-134	-26
-142	-14
-144	-12
-140	-10
-132	-26
-110	-40
-94	-60
-78	-70
-72	-78
-74	-78
-76	-78
-78	-80
-84	-74
-90	-78
-92	-78
-90	-72
-92	-58
-98	-52
-100	-34
-100	-26
-94	-14
-96	-14
-100	-16
-104	-24
-102	-36
-104	-44
-114	-62
-102	-60
-100	-64
-100	-68
-94	-72
-94	-72
-94	-70
-94	-68
-92	-68
-90	-62
-92	-50
-96	-36
-90	-26
-100	-14
-100	-10
-98	-8
-96	-14
-100	-20
-104	-30
-102	-40
-106	-54
-102	-68
-102	-74
-94	-76
-92	-76
-84	-70
-80	-64
-78	-58
-78	-56
-82	-58
-82	-52
-82	-42
-76	-22
-86	-10
-92	-2
-94	-2
-98	-10
-100	-20
-102	-32
-94	-40
-94	-50
-88	-52
-90	-60
-90	-72
-86	-78
-80	-74
-82	-74
-80	-72
-82	-70
-78	-64
-82	-56
-82	-40
-90	-26
-92	-18
-96	-12
-98	-6
-104	-6
-106	-18
-108	-28
-106	-44
-100	-58
-88	-66
-88	-66
-80	-70
-76	-76
-76	-80
-76	-82
-72	-78
-72	-72
-68	-68
-76	-52
-74	-46
-78	-40
-80	-32
-88	-24
-90	-14
-98	-12
-96	-14
-96	-24
-92	-36
-90	-48
-86	-64
-80	-72
-84	-76
-80	-78
-80	-82
-78	-76
-76	-76
-74	-74
-72	-72
-76	-60
-82	-46
-92	-32
-100	-16
-110	-8
-114	-4
-112	-2
-100	-12
-94	-26
-82	-36
-72	-56
-72	-62
-74	-66
-78	-68
-66	-78
-56	-78
-48	-76
-42	-80
-44	-76
-46	-72
-48	-60
-56	-56
-58	-42
-60	-26
-64	-16
-76	-10
-88	-6
-94	-16
-92	-28
-88	-44
-80	-58
-76	-72
-70	-74
-66	-78
-68	-82
-72	-78
-64	-82
-66	-82
-64	-82
-64	-66
-74	-50
-80	-34
-88	-22
-96	-20
-96	-14
-90	-12
-88	-12
-84	-18
-76	-26
-74	-38
-70	-50
-68	-66
-68	-74
-64	-78
-60	-84
-62	-88
-58	-78
-58	-82
-56	-86
-56	-80
-52	-68
-54	-50
-54	-36
-58	-26
-66	-16
-68	-8
-72	-10
-76	-16
-76	-26
-78	-42
-74	-64
-74	-74
-72	-78
-74	-82
-68	-80
-64	-70
-66	-66
-56	-68
-50	-76
-46	-72
-46	-66
-46	-42
-56	-30
-56	-26
-60	-14
-64	-18
-68	-22
-72	-32
-72	-34
-70	-42
-72	-50
-70	-58
-64	-68
-64	-72
-62	-76
-58	-70
-62	-70
-62	-60
-62	-64
-52	-62
-56	-58
-50	-44
-52	-34
-56	-24
-60	-22
-70	-32
-70	-38
-70	-26
-78	-26
-80	-30
-76	-40
-74	-48
-70	-56
-66	-70
-66	-68
-66	-72
-60	-72
-56	-68
-54	-72
-52	-72
-50	-62
-54	-44
-58	-34
-60	-22
-70	-16
-72	-18
-74	-16
-74	-16
-76	-24
-68	-34
-66	-46
-62	-54
-64	-64
-64	-68
-64	-70
-60	-72
-58	-68
-58	-70
-52	-72
-48	-70
-40	-58
-42	-44
-50	-26
-58	-18
-62	-6
-72	0
-82	-6
-90	-8
-96	-18
-96	-30
-92	-42
-90	-58
-70	-70
-58	-72
-40	-80
-28	-80
-26	-70
-28	-66
-32	-66
-28	-60
-32	-50
-36	-36
-42	-24
-42	-18
-54	-14
-64	-6
-62	-4
-68	-12
-70	-26
-72	-32
-62	-44
-62	-58
-56	-66
-60	-72
-50	-80
-44	-84
-48	-76
-44	-68
-40	-68
-38	-62
-38	-48
-38	-36
-44	-24
-50	-20
-54	-16
-60	-14
-60	0
-62	0
-64	-8
-74	-14
-70	-30
-72	-44
-70	-60
-72	-70
-66	-70
-50	-68
-40	-64
-30	-68
-30	-70
-28	-58
-30	-42
-40	-34
-40	-26
-46	-20
-52	-20
-54	-16
-62	-12
-58	-10
-70	-18
-68	-28
-64	-42
-64	-60
-58	-64
-48	-64
-40	-72
-40	-72
-40	-80
-32	-68
-34	-70
-32	-54
-34	-40
-36	-22
-42	-10
-44	4
-52	14
-50	10
-60	8
-64	4
-58	-12
-64	-18
-58	-28
-56	-44
-46	-50
-42	-54
-44	-58
-38	-62
-40	-56
-34	-54
-34	-54
-28	-50
-24	-40
-28	-30
-34	-8
-42	6
-48	4
-54	10
-56	6
-60	-6
-56	-8
-58	-16
-54	-28
-50	-36
-48	-44
-44	-50
-40	-58
-32	-66
-24	-68
-14	-66
-14	-60
-12	-52
-14	-42
-14	-36
-24	-24
-28	-10
-34	-2
-38	0
-46	0
-46	-2
-46	-18
-46	-32
-42	-46
-38	-56
-34	-68
-32	-70
-30	-64
-30	-60
-26	-54
-26	-52
-24	-54
-26	-50
-24	-42
-26	-24
-32	-20
-30	-8
-38	-8
-54	0
-62	2
-68	-4
-76	-12
-72	-24
-72	-40
-56	-58
-40	-68
-20	-72
-10	-78
-2	-76
2	-76
-8	-72
-10	-66
-14	-64
-14	-44
-20	-30
-30	-18
-40	0
-46	8
-54	10
-50	2
-52	-6
-46	-20
-38	-36
-32	-44
-30	-54
-28	-56
-30	-56
-28	-56
-30	-56
-28	-58
-28	-60
-26	-62
-22	-60
-28	-44
-24	-32
-28	-20
-30	-6
-36	-2
-38	0
-42	0
-50	-12
-54	-24
-50	-32
-48	-46
-38	-58
-40	-64
-32	-64
-32	-64
-24	-62
-24	-60
-26	-62
-24	-68
-24	-56
-28	-46
-26	-36
-26	-24
-28	-8
-36	2
-34	6
-40	-2
-42	-8
-42	-22
-36	-34
-34	-52
-32	-58
-22	-62
-28	-66
-20	-66
-20	-64
-22	-66
-14	-68
-20	-68
-14	-60
-16	-46
-22	-32
-24	-26
-36	-16
-38	-16
-42	-6
-48	-6
-52	-14
-40	-22
-32	-26
-30	-44
-22	-54
-20	-64
-18	-66
-18	-66
-18	-68
-16	-64
-10	-68
-4	-74
-2	-64
-6	-56
-16	-44
-22	-32
-32	-18
-36	-10
-36	-4
-30	4
-34	-6
-34	-12
-38	-26
-38	-40
-30	-56
-26	-64
-22	-64
-22	-64
-24	-60
-24	-64
-26	-62
-24	-60
-22	-58
-18	-40
-24	-26
-24	-22
-26	-16
-28	-16
-28	-14
-30	-14
-32	-14
-34	-26
-30	-34
-26	-44
-26	-52
-22	-62
-22	-70
-20	-76
-16	-80
-10	-80
-12	-74
-4	-78
-6	-70
-12	-56
-18	-44
-22	-28
-28	-18
-32	-10
-40	-10
-44	-14
-40	-18
-44	-24
-44	-32
-40	-48
-30	-64
-26	-66
-20	-74
-14	-66
-10	-62
-12	-68
-20	-60
-18	-62
-14	-64
-12	-52
-14	-36
-16	-20
-26	-6
-32	2
-32	2
-38	-8
-38	-8
-40	-20
-36	-32
-32	-48
-34	-58
-32	-64
-38	-64
-44	-64
-46	-56
-46	-56
-34	-50
-28	-62
-14	-62
-8	-44
0	-30
-10	-18
-16	-14
-22	-14
-30	-14
-28	-14
-24	-20
-26	-26
-26	-32
-28	-50
-26	-54
-26	-54
-32	-64
-30	-64
-32	-66
-34	-70
-30	-76
-24	-70
-24	-56
-18	-44
-16	-26
-12	-14
-10	-10
-12	-6
-16	-2
-28	0
-30	-12
-32	-18
-28	-32
-28	-52
-28	-66
-28	-72
-26	-76
-24	-80
-18	-80
-22	-82
-20	-76
-16	-80
-10	-78
-12	-56
-8	-34
-18	-20
-28	-12
-32	0
-36	-6
-34	-10
-32	-20
-34	-28
-32	-42
-28	-56
-24	-64
-20	-74
-26	-78
-24	-80
-22	-74
-14	-80
-10	-70
-12	-76
-12	-66
-12	-46
-16	-34
-20	-20
-18	-12
-24	-8
-28	-8
-32	-16
-34	-26
-36	-32
-32	-48
-28	-58
-28	-64
-24	-72
-22	-76
-16	-82
-18	-76
-16	-70
-24	-70
-22	-72
-18	-62
-16	-48
-16	-40
-18	-30
-28	-18
-28	-6
-22	-8
-28	-4
-30	-14
-30	-28
-32	-40
-32	-54
-28	-70
-20	-74
-18	-74
-20	-78
-18	-80
-16	-82
-14	-80
-18	-74
-16	-62
-24	-44
-20	-36
-24	-24
-28	-16
-28	-14
-30	-8
-30	-20
-36	-26
-30	-30
-24	-38
-24	-56
-18	-64
-22	-76
-24	-84
-16	-76
-18	-78
-14	-76
-10	-76
-18	-74
-16	-68
-14	-56
-22	-36
-30	-30
-36	-26
-50	-22
-56	-26
-64	-22
-62	-28
-56	-34
-48	-52
-30	-74
-20	-76
-10	-80
-10	-84
-4	-84
6	-84
2	-80
4	-84
-2	-82
-6	-76
-4	-56
-10	-42
-14	-36
-20	-28
-26	-18
-30	-14
-38	-18
-44	-36
-42	-42
-44	-50
-38	-60
-32	-66
-32	-74
-26	-84
-22	-84
-22	-84
-14	-78
-10	-78
-4	-64
-2	-62
-2	-46
-6	-34
-8	-26
-14	-18
-24	-14
-28	-10
-38	-14
-38	-24
-42	-40
-42	-52
-32	-62
-26	-68
-20	-74
-16	-78
-16	-76
-14	-74
-18	-72
-12	-76
-14	-72
-14	-66
-12	-48
-16	-30
-28	-30
-30	-14
-40	-14
-46	-8
-50	-14
-46	-22
-52	-30
-42	-44
-38	-60
-24	-70
-24	-80
-18	-80
-18	-82
-18	-72
-16	-70
-16	-74
-16	-72
-16	-66
-14	-54
-20	-34
-24	-20
-32	-14
-34	-14
-40	-10
-36	-10
-40	-14
-40	-18
-40	-38
-36	-58
-32	-66
-28	-74
-24	-74
-28	-70
-26	-66
-24	-62
-20	-60
-24	-60
-26	-48
-26	-38
-34	-28
-42	-16
-40	-10
-44	-10
-46	-8
-48	-16
-46	-22
-44	-34
-38	-44
-38	-56
-30	-62
-28	-66
-28	-72
-22	-78
-22	-78
-24	-74
-20	-76
-16	-80
-20	-66
-14	-52
-20	-40
-24	-28
-28	-26
-30	-16
-36	-10
-38	-14
-32	-18
-38	-22
-40	-30
-32	-38
-36	-54
-26	-58
-30	-70
-34	-72
-24	-74
-22	-74
-24	-72
-18	-74
-18	-64
-22	-44
-22	-32
-30	-20
-38	-8
-52	-4
-68	-6
-64	-10
-72	-12
-70	-22
-62	-34
-44	-52
-22	-64
-6	-76
-6	-74
-4	-84
-4	-80
-2	-78
-10	-74
-8	-70
-18	-58
-20	-48
-24	-28
-30	-18
-32	-12
-32	-8
-34	-6
-32	-6
-34	-16
-34	-30
-24	-42
-26	-60
-20	-64
-16	-72
-10	-78
-8	-78
-4	-84
0	-86
-2	-82
0	-76
0	-62
-6	-46
-10	-34
-14	-22
-20	-18
-22	-10
-26	-8
-32	-18
-32	-28
-32	-38
-36	-56
-36	-60
-28	-64
-28	-72
-32	-72
-28	-70
-24	-76
-26	-76
-10	-72
-8	-68
-6	-60
-6	-50
-10	-40
-14	-26
-16	-20
-28	-8
-32	-8
-38	-14
-34	-24
-36	-30
-36	-40
-32	-50
-28	-60
-28	-58
-24	-68
-20	-64
-22	-68
-20	-64
-18	-70
-18	-70
-12	-60
-10	-50
-18	-38
-20	-32
-26	-14
-36	-6
-38	-8
-42	-12
-42	-22
-40	-38
-38	-50
-32	-62
-28	-68
-24	-78
-20	-90
-18	-92
-20	-82
-18	-78
-18	-72
-18	-72
-18	-60
-20	-46
-24	-38
-24	-30
-22	-22
-30	-24
-26	-16
-40	-22
-38	-28
-40	-40
-38	-58
-32	-66
-30	-72
-30	-76
-28	-84
-28	-76
-24	-80
-26	-82
-20	-88
-16	-84
-12	-78
-10	-66
-14	-52
-18	-28
-32	-20
-34	-12
-40	-20
-38	-22
-36	-26
-34	-38
-34	-50
-26	-68
-26	-78
-30	-82
-40	-82
-48	-80
-56	-80
-60	-76
-60	-72
-54	-68
-34	-62
-14	-46
0	-40
-2	-34
-4	-24
-12	-14
-20	-14
-24	-16
-32	-24
-28	-32
-28	-50
-26	-64
-22	-74
-20	-80
-20	-82
-18	-84
-18	-82
-16	-82
-10	-86
-2	-88
-8	-80
-6	-56
-14	-36
-22	-18
-24	-8
-30	-8
-34	-8
-42	-10
-40	-22
-40	-38
-36	-62
-30	-72
-28	-76
-26	-74
-30	-76
-28	-78
-24	-76
-18	-74
-20	-72
-20	-68
-24	-54
-26	-44
-28	-28
-32	-20
-36	-10
-42	0
-46	-10
-44	-16
-46	-20
-50	-30
-40	-44
-40	-56
-38	-64
-36	-68
-32	-74
-20	-74
-16	-74
-8	-74
-8	-74
-4	-80
-2	-66
-2	-50
-14	-36
-20	-22
-24	-18
-30	-14
-32	-8
-36	-16
-40	-28
-40	-40
-34	-52
-28	-66
-30	-72
-26	-78
-26	-86
-20	-86
-18	-86
-16	-88
-16	-84
-16	-80
-10	-66
-18	-54
-16	-36
-20	-24
-26	-16
-28	-10
-36	-18
-40	-30
-46	-44
-40	-50
-44	-60
-40	-60
-34	-68
-24	-80
-16	-82
-10	-88
-10	-82
-8	-84
-8	-82
-10	-74
-14	-70
-16	-54
-24	-44
-22	-30
-32	-26
-38	-16
-48	-20
-54	-24
-62	-32
-70	-42
-72	-48
-72	-58
-72	-60
-62	-70
-50	-76
-24	-78
-2	-82
14	-82
22	-84
18	-80
10	-70
6	-56
-2	-44
-12	-28
-16	-22
-26	-20
-30	-22
-36	-28
-36	-34
-32	-46
-32	-54
-34	-62
-30	-66
-24	-72
-24	-78
-20	-82
-22	-86
-20	-80
-20	-80
-18	-74
-20	-68
-18	-54
-22	-40
-26	-24
-30	-12
-30	-10
-30	-12
-38	-16
-34	-28
-36	-44
-32	-54
-30	-66
-32	-76
-24	-82
-20	-84
-22	-84
-20	-86
-24	-82
-24	-80
-22	-82
-18	-76
-20	-66
-24	-54
-28	-44
-30	-30
-32	-24
-40	-26
-42	-34
-42	-34
-44	-38
-46	-46
-42	-56
-48	-64
-42	-76
-38	-84
-38	-86
-34	-82
-28	-80
-24	-80
-26	-78
-28	-66
-28	-52
-26	-38
-40	-22
-42	-12
-52	-6
-56	-10
-62	-14
-62	-22
-58	-44
-54	-62
-46	-84
-38	-86
-32	-94
-26	-92
-20	-98
-20	-98
-22	-98
-22	-90
-18	-84
-16	-68
-20	-50
-24	-38
-32	-30
-32	-24
-38	-16
-40	-14
-38	-22
-40	-26
-44	-46
-46	-62
-40	-74
-34	-82
-34	-92
-34	-94
-28	-90
-34	-86
-32	-88
-30	-84
-22	-78
-28	-70
-34	-58
-32	-48
-34	-44
-36	-38
-44	-30
-50	-30
-44	-30
-50	-40
-50	-54
-48	-66
-46	-78
-44	-90
-36	-94
-42	-92
-36	-90
-36	-90
-26	-82
-24	-88
-18	-84
-22	-72
-26	-58
-28	-48
-34	-44
-34	-24
-40	-16
-46	-18
-54	-24
-66	-30
-64	-48
-70	-58
-58	-80
-56	-92
-40	-92
-26	-94
-12	-94
-4	-94
0	-96
4	-100
-2	-106
-8	-90
-14	-74
-22	-54
-30	-36
-40	-22
-46	-16
-50	-20
-42	-34
-36	-48
-32	-56
-20	-68
-18	-78
-14	-90
-14	-100
-12	-102
-18	-100
-14	-92
-20	-88
-18	-84
-16	-86
-24	-76
-16	-64
-22	-58
-18	-44
-28	-34
-28	-32
-32	-28
-36	-30
-40	-38
-38	-48
-34	-62
-28	-80
-22	-84
-24	-90
-20	-100
-18	-104
-14	-100
-18	-92
-20	-86
-18	-84
-20	-74
-22	-54
-30	-48
-36	-30
-40	-30
-30	-28
-34	-34
-32	-36
-28	-44
-34	-52
-38	-64
-30	-74
-26	-80
-24	-76
-22	-88
-18	-90
-14	-96
-16	-92
-14	-88
-12	-80
-12	-60
-16	-52
-20	-46
-22	-36
-32	-38
-30	-36
-34	-30
-36	-34
-32	-34
-36	-50
-28	-66
-26	-76
-22	-74
-24	-82
-18	-82
-22	-78
-18	-82
-20	-84
-16	-82
-14	-82
-8	-70
-8	-56
-10	-42
-20	-32
-24	-30
-32	-24
-34	-30
-44	-34
-42	-48
-44	-66
-44	-84
-42	-90
-48	-86
-44	-82
-42	-76
-36	-80
-22	-74
-20	-80
-20	-74
-10	-76
-10	-62
-10	-50
-14	-38
-14	-30
-24	-24
-30	-24
-38	-24
-34	-32
-32	-44
-34	-56
-30	-68
-26	-76
-22	-82
-24	-90
-20	-90
-16	-92
-18	-90
-20	-90
-20	-92
-24	-86
-28	-82
-44	-58
-50	-44
-56	-36
-56	-32
-44	-34
-22	-34
-16	-40
-8	-42
-12	-56
-14	-64
-16	-72
-18	-86
-18	-90
-12	-90
-6	-92
-2	-92
0	-92
-2	-90
-4	-84
-6	-74
-2	-56
-8	-50
-12	-44
-20	-28
-26	-24
-34	-22
-38	-28
-36	-36
-40	-46
-34	-56
-36	-66
-32	-80
-34	-84
-26	-92
-22	-98
-24	-100
-24	-96
-20	-100
-6	-88
-6	-76
-6	-58
-10	-48
-14	-34
-22	-20
-22	-14
-28	-18
-32	-30
-34	-42
-32	-58
-26	-68
-28	-78
-26	-80
-24	-88
-24	-88
-20	-88
-12	-88
-14	-84
-16	-86
-18	-78
-16	-64
-14	-52
-26	-36
-30	-34
-38	-32
-36	-30
-44	-30
-40	-34
-42	-44
-44	-54
-40	-70
-32	-80
-34	-84
-26	-86
-24	-90
-20	-94
-24	-96
-16	-88
-20	-88
-16	-84
-18	-72
-18	-56
-24	-40
-30	-32
-26	-26
-34	-24
-36	-28
-38	-44
-36	-44
-36	-58
-36	-70
-30	-78
-28	-90
-24	-94
-24	-94
-22	-86
-20	-86
-24	-82
-22	-82
-14	-74
-10	-64
-10	-46
-14	-34
-22	-26
-22	-20
-32	-20
-32	-22
-32	-26
-32	-44
-30	-52
-30	-78
-32	-86
-26	-100
-22	-108
-26	-102
-24	-98
-24	-88
-28	-86
-18	-84
-12	-82
-2	-76
-4	-62
-2	-50
-12	-36
-18	-30
-20	-26
-28	-28
-32	-34
-34	-38
-24	-50
-26	-68
-20	-74
-24	-86
-22	-82
-20	-90
-18	-92
-16	-90
-22	-84
-18	-82
-16	-76
-16	-64
-8	-56
-10	-40
-14	-32
-16	-30
-20	-30
-24	-32
-28	-34
-28	-44
-32	-54
-36	-70
-40	-84
-40	-92
-36	-92
-34	-94
-34	-94
-26	-88
-20	-88
-4	-90
8	-82
14	-68
8	-54
2	-32
-2	-26
-12	-24
-16	-20
-24	-26
-30	-30
-26	-40
-28	-54
-24	-68
-24	-76
-20	-82
-14	-84
-14	-86
-16	-88
-14	-82
-12	-90
-14	-96
-14	-86
-14	-74
-16	-54
-20	-38
-22	-30
-26	-26
-34	-20
-38	-18
-42	-24
-46	-36
-44	-52
-34	-72
-30	-86
-18	-82
-18	-88
-16	-78
-14	-84
-10	-84
-6	-80
-4	-80
0	-74
0	-62
4	-54
0	-40
-6	-30
-14	-30
-20	-26
-30	-26
-36	-32
-32	-50
-30	-60
-30	-72
-28	-74
-18	-66
-8	-78
-6	-76
-10	-84
-6	-76
-4	-78
-8	-78
-6	-72
-4	-58
-10	-50
-16	-36
-20	-26
-24	-18
-30	-16
-30	-18
-34	-26
-32	-42
-28	-54
-28	-76
-20	-80
-18	-80
-20	-86
-20	-86
-22	-88
-20	-88
-16	-86
-12	-82
-8	-78
-8	-68
-10	-56
-12	-46
-16	-38
-26	-40
-30	-36
-30	-30
-28	-36
-30	-42
-28	-56
-24	-68
-20	-78
-22	-82
-18	-84
-14	-86
-12	-86
-14	-86
-12	-88
-8	-82
-4	-72
-14	-66
-20	-46
-22	-38
-28	-28
-36	-26
-34	-24
-34	-20
-32	-26
-30	-36
-30	-50
-30	-64
-24	-78
-18	-86
-14	-90
-14	-88
-16	-88
-10	-86
-6	-76
-14	-72
-10	-72
-12	-58
-12	-52
-16	-36
-20	-26
-28	-18
-32	-18
-34	-24
-34	-32
-34	-38
-36	-56
-28	-72
-26	-74
-22	-86
-16	-92
-16	-88
-14	-88
-18	-90
-14	-84
-8	-82
-8	-74
-8	-66
-10	-48
-12	-38
-16	-28
-24	-20
-32	-18
-38	-12
-42	-22
-44	-30
-50	-50
-54	-66
-66	-80
-48	-86
-46	-88
-36	-84
-26	-88
-14	-88
-2	-86
4	-80
6	-72
10	-64
-6	-52
-12	-40
-20	-28
-24	-26
-34	-30
-38	-30
-34	-30
-38	-38
-38	-48
-32	-62
-24	-72
-22	-84
-20	-90
-22	-92
-18	-88
-18	-84
-16	-86
-18	-78
-20	-70
-22	-58
-20	-48
-26	-38
-28	-28
-34	-20
-36	-22
-32	-32
-30	-40
-30	-54
-26	-72
-26	-86
-24	-86
-28	-92
-24	-92
-20	-96
-16	-90
-16	-92
-12	-90
-12	-90
-10	-80
-8	-68
-12	-56
-18	-40
-26	-38
-32	-30
-40	-22
-40	-34
-42	-44
-40	-58
-34	-72
-36	-88
-30	-90
-28	-96
-26	-94
-22	-86
-16	-86
-12	-78
-18	-82
-20	-78
-24	-70
-24	-62
-22	-50
-30	-42
-34	-32
-38	-22
-44	-22
-50	-22
-50	-30
-48	-42
-44	-54
-40	-72
-32	-78
-30	-90
-30	-92
-26	-94
-24	-106
-18	-102
-20	-96
-20	-86
-18	-84
-22	-66
-26	-50
-30	-42
-32	-38
-40	-34
-40	-38
-42	-40
-44	-46
-46	-56
-42	-66
-44	-78
-34	-84
-46	-94
-32	-102
-26	-112
-24	-116
-18	-118
-14	-108
-20	-100
-22	-84
-28	-58
-34	-44
-40	-36
-44	-36
-40	-34
-46	-32
-50	-36
-52	-46
-52	-52
-44	-60
-40	-74
-30	-84
-28	-96
-20	-94
-20	-100
-16	-98
-18	-94
-18	-96
-20	-96
-18	-92
-18	-80
-16	-64
-28	-56
-28	-52
-30	-48
-36	-46
-40	-44
-42	-46
-46	-58
-38	-74
-34	-80
-32	-92
-28	-96
-22	-98
-24	-98
-24	-92
-20	-94
-20	-92
-22	-86
-16	-86
-18	-70
-18	-66
-26	-62
-26	-50
-26	-46
-32	-26
-38	-30
-48	-34
-50	-46
-42	-60
-44	-72
-38	-80
-36	-92
-34	-98
-30	-102
-28	-104
-24	-104
-20	-102
-20	-100
-24	-84
-18	-80
-20	-64
-24	-50
-24	-38
-36	-32
-42	-34
-40	-40
-36	-44
-34	-54
-36	-62
-36	-72
-36	-76
-34	-84
-32	-92
-30	-96
-26	-96
-26	-96
-22	-96
-18	-100
-24	-82
-28	-62
-34	-48
-46	-40
-52	-34
-54	-26
-54	-28
-46	-32
-42	-48
-34	-58
-26	-72
-20	-86
-18	-92
-18	-100
-16	-108
-14	-116
-14	-108
-18	-100
-18	-90
-18	-82
-16	-82
-22	-72
-24	-58
-26	-48
-30	-48
-36	-44
-40	-46
-40	-46
-42	-52
-40	-62
-38	-74
-40	-88
-36	-94
-28	-100
-20	-104
-24	-100
-28	-94
-32	-92
-38	-92
-44	-84
-50	-74
-52	-66
-54	-52
-54	-38
-42	-34
-26	-34
-18	-40
-8	-42
-22	-46
-24	-60
-24	-68
-30	-78
-24	-90
-22	-92
-18	-98
-20	-98
-20	-94
-18	-92
-20	-94
-18	-94
-20	-84
-20	-78
-22	-60
-24	-56
-30	-48
-32	-46
-38	-44
-38	-42
-44	-46
-44	-54
-44	-60
-48	-76
-44	-84
-38	-90
-32	-100
-34	-104
-36	-104
-32	-100
-26	-96
-24	-92
-20	-86
-18	-76
-18	-64
-18	-54
-28	-48
-34	-44
-36	-36
-40	-40
-42	-42
-44	-54
-44	-70
-46	-78
-36	-84
-34	-96
-30	-100
-32	-102
-26	-98
-30	-98
-30	-96
-26	-98
-26	-92
-26	-74
-32	-58
-32	-52
-36	-48
-36	-54
-40	-54
-44	-56
-46	-52
-46	-68
-52	-80
-40	-92
-36	-98
-38	-100
-36	-102
-32	-100
-36	-110
-32	-104
-32	-104
-28	-104
-30	-106
-32	-92
-32	-80
-36	-62
-40	-50
-52	-40
-54	-38
-54	-36
-56	-50
-80	-66
-50	-82
-50	-100
-42	-108
-44	-116
-34	-112
-36	-116
-32	-114
-30	-116
-38	-124
-44	-112
-30	-98
-32	-86
-32	-74
-30	-58
-34	-50
-32	-48
-42	-44
-48	-48
-48	-62
-48	-76
-48	-90
-44	-100
-46	-106
-46	-108
-36	-108
-38	-112
-42	-108
-42	-108
-38	-110
-40	-102
-38	-94
-38	-80
-44	-68
-38	-60
-46	-52
-42	-54
-42	-58
-46	-64
-50	-76
-48	-80
-46	-88
-44	-92
-52	-102
-46	-110
-46	-116
-48	-122
-48	-112
-52	-110
-60	-112
-56	-106
-56	-92
-58	-80
-56	-66
-52	-64
-40	-54
-30	-54
-22	-56
-28	-62
-34	-72
-38	-78
-34	-88
-34	-98
-30	-104
-28	-108
-26	-108
-30	-112
-28	-118
-28	-112
-24	-112
-22	-112
-24	-98
-24	-94
-24	-72
-30	-64
-32	-52
-36	-52
-40	-58
-40	-64
-42	-76
-42	-82
-36	-94
-40	-100
-40	-102
-36	-106
-30	-110
-34	-116
-28	-118
-26	-122
-28	-110
-28	-102
-26	-88
-28	-72
-36	-60
-34	-54
-42	-54
-46	-50
-44	-48
-48	-54
-54	-62
-56	-76
-50	-84
-48	-94
-46	-104
-48	-106
-42	-108
-44	-110
-34	-108
-26	-108
-28	-108
-22	-106
-26	-104
-26	-88
-30	-78
-34	-64
-44	-58
-50	-50
-56	-56
-56	-62
-56	-74
-48	-86
-44	-102
-44	-108
-44	-114
-40	-116
-42	-116
-42	-112
-42	-116
-46	-118
-46	-124
-38	-122
-38	-114
-34	-100
-36	-80
-40	-74
-48	-62
-54	-52
-58	-52
-60	-62
-58	-66
-48	-82
-42	-96
-36	-108
-30	-120
-28	-128
-26	-128
-24	-124
-20	-120
-18	-112
-22	-108
-20	-104
-30	-100
-32	-90
-36	-78
-40	-60
-52	-52
-56	-46
-58	-50
-58	-58
-60	-68
-58	-74
-52	-86
-48	-102
-44	-108
-44	-114
-42	-120
-42	-122
-36	-118
-38	-114
-36	-110
-32	-106
-32	-98
-32	-84
-36	-72
-42	-64
-44	-54
-52	-52
-52	-54
-54	-56
-58	-60
-60	-74
-64	-82
-62	-98
-56	-110
-52	-110
-50	-118
-46	-122
-38	-118
-38	-122
-36	-112
-28	-118
-28	-104
-30	-94
-36	-78
-40	-70
-44	-62
-50	-60
-48	-60
-56	-62
-58	-70
-56	-84
-54	-96
-50	-106
-48	-108
-42	-120
-44	-122
-38	-122
-38	-122
-38	-124
-34	-116
-34	-120
-32	-110
-32	-92
-38	-70
-40	-58
-52	-46
-58	-36
-58	-40
-62	-44
-58	-58
-54	-70
-52	-84
-46	-94
-44	-108
-42	-118
-40	-124
-40	-124
-36	-122
-30	-122
-32	-108
-30	-100
-32	-94
-32	-82
-38	-66
-44	-52
-48	-46
-56	-42
-56	-44
-64	-50
-62	-60
-62	-74
-60	-92
-56	-104
-48	-108
-42	-124
-38	-122
-40	-118
-36	-122
-42	-116
-44	-114
-46	-110
-46	-104
-50	-90
-52	-68
-52	-58
-56	-50
-60	-48
-64	-48
-62	-54
-56	-76
-56	-90
-52	-102
-46	-114
-42	-124
-40	-134
-38	-134
-40	-122
-38	-110
-42	-102
-40	-106
-40	-102
-42	-94
-40	-86
-42	-76
-52	-64
-60	-58
-62	-50
-66	-54
-70	-58
-68	-64
-76	-78
-68	-88
-62	-98
-54	-104
-48	-114
-48	-116
-42	-116
-44	-118
-44	-120
-40	-120
-36	-124
-26	-114
-32	-98
-38	-80
-46	-62
-52	-54
-62	-52
-64	-52
-68	-58
-68	-64
-68	-76
-68	-86
-66	-102
-56	-112
-52	-120
-50	-122
-50	-126
-44	-128
-42	-126
-44	-130
-48	-120
-50	-106
-52	-84
-52	-72
-56	-56
-64	-52
-70	-52
-76	-54
-78	-58
-76	-74
-72	-84
-70	-92
-72	-100
-64	-110
-62	-112
-64	-120
-56	-120
-56	-120
-54	-118
-52	-120
-50	-116
-50	-100
-52	-84
-58	-70
-66	-60
-68	-52
-76	-52
-76	-52
-80	-60
-82	-68
-78	-82
-74	-102
-74	-114
-72	-124
-66	-124
-62	-124
-60	-122
-58	-126
-60	-130
-48	-124
-40	-106
-44	-98
-46	-86
-54	-78
-58	-70
-64	-64
-70	-58
-74	-58
-74	-60
-78	-68
-74	-76
-74	-96
-70	-104
-58	-110
-58	-116
-58	-114
-52	-114
-50	-116
-50	-122
-46	-124
-46	-122
-42	-110
-46	-92
-54	-76
-54	-62
-62	-54
-64	-54
-72	-60
-74	-58
-78	-66
-72	-78
-70	-94
-62	-110
-62	-116
-54	-120
-54	-112
-54	-116
-54	-116
-54	-116
-50	-116
-48	-112
-48	-102
-48	-88
-56	-74
-62	-66
-66	-60
-70	-50
-76	-58
-76	-68
-80	-80
-74	-94
-70	-104
-62	-108
-56	-110
-54	-116
-52	-116
-56	-116
-60	-116
-52	-118
-52	-114
-50	-110
-48	-98
-52	-88
-56	-76
-56	-68
-64	-62
-62	-52
-70	-54
-68	-54
-78	-64
-74	-78
-74	-90
-66	-100
-66	-112
-58	-122
-60	-124
-52	-120
-50	-108
-52	-110
-54	-108
-56	-106
-50	-92
-48	-78
-54	-72
-56	-66
-62	-54
-64	-54
-78	-52
-82	-50
-80	-66
-84	-78
-74	-92
-74	-104
-62	-110
-62	-112
-62	-112
-58	-120
-56	-116
-52	-116
-52	-116
-54	-118
-52	-112
-58	-98
-64	-78
-66	-64
-70	-48
-74	-50
-78	-50
-86	-58
-78	-68
-78	-82
-76	-96
-72	-108
-70	-120
-66	-126
-66	-126
-60	-124
-62	-124
-58	-120
-60	-124
-56	-114
-54	-108
-56	-94
-58	-84
-64	-76
-70	-64
-78	-54
-80	-60
-78	-68
-84	-78
-84	-92
-86	-108
-72	-116
-74	-120
-66	-126
-66	-122
-62	-124
-60	-124
-62	-124
-60	-122
-58	-116
-58	-104
-58	-94
-66	-80
-72	-70
-72	-68
-78	-64
-82	-70
-82	-82
-80	-86
-86	-96
-80	-104
-72	-114
-72	-116
-68	-124
-66	-120
-64	-122
-62	-128
-62	-132
-60	-128
-58	-120
-60	-104
-58	-86
-64	-76
-70	-70
-80	-66
-86	-62
-90	-62
-90	-66
-90	-72
-84	-82
-92	-96
-80	-108
-76	-126
-68	-146
-60	-148
-58	-136
-62	-118
-64	-110
-66	-108
-72	-106
-68	-100
-70	-94
-72	-76
-76	-70
-78	-56
-86	-56
-90	-62
-90	-66
-90	-82
-96	-92
-92	-102
-84	-112
-82	-118
-76	-128
-74	-130
-72	-132
-66	-132
-64	-126
-58	-122
-62	-106
-64	-96
-66	-82
-72	-74
-74	-64
-82	-54
-90	-54
-92	-56
-94	-66
-90	-72
-88	-86
-82	-98
-78	-110
-80	-118
-76	-122
-70	-126
-70	-126
-70	-126
-70	-118
-70	-120
-68	-114
-64	-104
-68	-88
-74	-74
-74	-68
-78	-66
-92	-68
-92	-72
-92	-76
-90	-82
-92	-86
-90	-96
-84	-102
-82	-116
-92	-120
-82	-128
-86	-120
-72	-124
-80	-118
-76	-124
-70	-116
-66	-102
-70	-86
-72	-78
-70	-68
-82	-62
-86	-56
-84	-62
-90	-62
-94	-70
-92	-92
-90	-108
-84	-118
-82	-116
-80	-118
-72	-122
-70	-128
-72	-126
-68	-126
-70	-118
-64	-114
-70	-106
-76	-92
-80	-76
-82	-68
-88	-60
-88	-56
-90	-60
-96	-66
-96	-70
-90	-80
-90	-96
-84	-108
-80	-118
-82	-126
-80	-128
-76	-124
-74	-128
-70	-126
-68	-128
-64	-116
-72	-100
-78	-86
-82	-78
-86	-70
-88	-58
-84	-62
-90	-62
-92	-68
-92	-82
-88	-90
-94	-98
-86	-108
-86	-116
-82	-120
-76	-124
-76	-122
-74	-122
-76	-124
-72	-120
-70	-114
-74	-104
-78	-88
-76	-80
-82	-74
-82	-66
-86	-58
-90	-64
-92	-70
-90	-80
-90	-94
-84	-108
-78	-112
-80	-124
-74	-130
-76	-126
-74	-128
-70	-124
-68	-130
-64	-132
-60	-126
-66	-108
-64	-94
-72	-82
-74	-72
-78	-64
-84	-60
-84	-68
-86	-84
-90	-98
-92	-106
-86	-112
-78	-112
-78	-118
-78	-124
-66	-128
-64	-130
-78	-128
-66	-126
-68	-130
-58	-124
-60	-110
-66	-94
-70	-78
-74	-72
-82	-66
-84	-66
-88	-70
-90	-78
-88	-84
-86	-100
-86	-110
-84	-124
-78	-130
-76	-136
-72	-134
-76	-138
-72	-134
-70	-130
-68	-134
-72	-126
-68	-112
-72	-98
-74	-90
-82	-76
-84	-72
-86	-68
-90	-68
-86	-74
-86	-88
-86	-94
-84	-106
-82	-120
-76	-124
-72	-126
-70	-130
-68	-134
-66	-130
-66	-130
-60	-128
-60	-124
-68	-112
-70	-98
-72	-82
-74	-80
-72	-74
-82	-76
-82	-78
-96	-86
-90	-98
-88	-108
-82	-126
-78	-128
-74	-128
-74	-132
-76	-130
-70	-136
-68	-132
-68	-128
-68	-124
-60	-116
-68	-106
-72	-96
-72	-82
-76	-78
-82	-70
-82	-74
-86	-78
-82	-80
-78	-88
-78	-98
-84	-108
-80	-120
-70	-126
-72	-130
-70	-132
-62	-132
-66	-130
-62	-134
-66	-134
-58	-126
-62	-116
-64	-100
-66	-88
-72	-76
-78	-70
-82	-72
-86	-70
-92	-76
-86	-90
-88	-104
-84	-124
-80	-134
-74	-132
-86	-128
-70	-130
-62	-130
-66	-130
-60	-124
-66	-120
-62	-114
-64	-102
-66	-88
-72	-78
-80	-68
-86	-64
-96	-60
-94	-60
-96	-58
-90	-76
-84	-90
-86	-104
-84	-114
-82	-120
-78	-128
-78	-120
-74	-118
-74	-120
-72	-124
-68	-126
-72	-118
-72	-106
-72	-92
-76	-80
-78	-70
-86	-64
-88	-64
-86	-70
-92	-72
-92	-90
-98	-106
-92	-108
-88	-120
-88	-126
-82	-128
-84	-132
-76	-130
-76	-130
-74	-128
-74	-126
-74	-118
-66	-104
-74	-90
-78	-82
-82	-66
-90	-66
-94	-56
-94	-64
-92	-72
-92	-80
-92	-96
-92	-104
-88	-112
-78	-120
-82	-120
-74	-122
-80	-124
-78	-122
-76	-122
-78	-126
-70	-124
-74	-108
-74	-90
-80	-74
-84	-68
-84	-66
-88	-68
-92	-66
-94	-76
-94	-86
-92	-96
-90	-110
-86	-118
-86	-128
-86	-132
-84	-126
-84	-128
-76	-134
-80	-126
-78	-124
-76	-122
-80	-106
-80	-98
-80	-86
-90	-78
-86	-70
-92	-68
-92	-74
-96	-70
-96	-84
-96	-96
-94	-112
-84	-122
-86	-130
-84	-134
-82	-136
-84	-138
-76	-134
-78	-138
-72	-136
-74	-130
-72	-120
-72	-104
-74	-94
-80	-86
-82	-80
-86	-78
-84	-74
-88	-78
-90	-90
-96	-98
-90	-110
-84	-124
-80	-128
-80	-136
-74	-134
-72	-128
-74	-126
-74	-120
-72	-124
-72	-122
-78	-112
-70	-92
-74	-82
-80	-78
-86	-72
-88	-64
-92	-66
-92	-70
-92	-80
-86	-88
-82	-106
-82	-120
-76	-130
-72	-130
-74	-136
-74	-130
-66	-130
-70	-134
-72	-130
-66	-126
-64	-110
-70	-98
-74	-90
-80	-82
-82	-76
-86	-76
-90	-80
-88	-82
-94	-96
-90	-106
-90	-118
-82	-128
-86	-136
-78	-140
-74	-144
-74	-144
-66	-152
-66	-152
-60	-146
-60	-132
-64	-118
-68	-98
-70	-92
-80	-82
-82	-74
-86	-76
-84	-78
-88	-88
-90	-96
-82	-112
-84	-120
-78	-128
-78	-132
-74	-134
-70	-138
-66	-134
-66	-136
-66	-136
-60	-134
-56	-128
-60	-116
-60	-98
-64	-96
-72	-82
-74	-80
-82	-76
-88	-80
-86	-88
-84	-104
-82	-120
-74	-132
-78	-136
-70	-132
-70	-138
-70	-136
-68	-134
-66	-132
-66	-134
-62	-134
-60	-126
-62	-114
-70	-100
-66	-94
-76	-84
-80	-76
-84	-78
-86	-76
-88	-78
-86	-86
-86	-104
-82	-116
-80	-124
-80	-128
-76	-134
-72	-132
-68	-134
-68	-130
-66	-132
-62	-132
-60	-128
-56	-112
-58	-98
-78	-84
-78	-72
-82	-62
-84	-64
-86	-66
-86	-78
-86	-88
-84	-98
-80	-112
-78	-118
-72	-120
-68	-138
-72	-132
-66	-136
-62	-134
-60	-134
-56	-132
-60	-126
-58	-114
-62	-94
-70	-80
-72	-74
-82	-72
-80	-66
-86	-78
-88	-82
-84	-100
-84	-116
-76	-122
-72	-128
-68	-128
-64	-128
-66	-128
-70	-132
-70	-138
-68	-132
-66	-132
-62	-122
-60	-112
-66	-98
-68	-90
-74	-82
-78	-78
-78	-76
-84	-80
-82	-88
-84	-104
-80	-118
-76	-124
-70	-128
-74	-128
-72	-124
-70	-130
-66	-128
-68	-128
-66	-128
-62	-130
-64	-128
-62	-112
-66	-96
-68	-94
-72	-82
-70	-78
-78	-76
-80	-74
-82	-86
-78	-88
-78	-96
-76	-110
-72	-120
-70	-130
-64	-132
-62	-134
-58	-136
-60	-136
-62	-126
-56	-138
-56	-124
-56	-116
-62	-100
-68	-90
-72	-84
-74	-74
-80	-72
-86	-74
-88	-76
-88	-82
-86	-98
-82	-108
-78	-118
-72	-124
-68	-128
-68	-130
-68	-136
-66	-132
-62	-134
-60	-130
-60	-126
-66	-104
-64	-94
-68	-84
-74	-74
-78	-70
-84	-68
-84	-68
-88	-72
-88	-88
-90	-98
-86	-110
-82	-118
-76	-126
-74	-130
-68	-132
-66	-136
-64	-136
-60	-134
-64	-136
-54	-120
-60	-108
-62	-94
-70	-84
-76	-84
-72	-76
-78	-68
-84	-70
-84	-80
-84	-90
-86	-102
-78	-120
-76	-130
-68	-136
-66	-138
-62	-140
-60	-144
-58	-154
-54	-152
-54	-144
-54	-132
-56	-120
-58	-100
-68	-86
-74	-76
-80	-76
-80	-72
-90	-80
-88	-88
-86	-98
-84	-112
-78	-122
-78	-128
-74	-134
-74	-142
-74	-138
-70	-140
-60	-134
-62	-134
-60	-126
-68	-122
-64	-112
-68	-100
-66	-90
-72	-84
-74	-78
-78	-76
-84	-70
-84	-82
-88	-88
-82	-104
-80	-122
-78	-132
-74	-136
-68	-132
-66	-134
-68	-128
-68	-136
-64	-134
-64	-132
-64	-124
-68	-106
-68	-90
-72	-82
-76	-72
-78	-74
-80	-70
-84	-78
-86	-88
-88	-96
-84	-112
-76	-122
-74	-130
-68	-132
-68	-134
-72	-134
-66	-142
-64	-138
-60	-136
-60	-138
-54	-128
-58	-114
-60	-106
-66	-98
-68	-90
-76	-80
-78	-82
-80	-82
-78	-94
-82	-96
-76	-110
-70	-120
-74	-128
-68	-138
-60	-134
-60	-138
-62	-136
-66	-136
-56	-132
-60	-128
-62	-122
-62	-108
-64	-96
-66	-86
-70	-80
-78	-76
-84	-76
-84	-82
-84	-88
-86	-92
-80	-106
-78	-116
-74	-126
-70	-132
-66	-138
-66	-130
-64	-138
-62	-132
-64	-134
-56	-132
-54	-128
-52	-114
-62	-94
-62	-84
-66	-76
-78	-62
-82	-64
-86	-66
-90	-74
-80	-88
-76	-106
-72	-124
-70	-134
-68	-140
-64	-148
-64	-144
-62	-132
-64	-128
-68	-136
-62	-134
-56	-122
-66	-110
-64	-96
-70	-88
-72	-78
-74	-72
-84	-74
-84	-74
-86	-82
-80	-92
-80	-106
-74	-124
-66	-132
-64	-146
-62	-146
-58	-146
-56	-144
-56	-140
-50	-134
-52	-132
-52	-124
-52	-112
-54	-100
-58	-96
-62	-88
-68	-80
-74	-74
-72	-74
-78	-78
-78	-92
-76	-106
-80	-112
-72	-124
-68	-130
-62	-132
-60	-136
-60	-134
-62	-136
-56	-138
-54	-134
-52	-120
-54	-114
-58	-100
-66	-90
-68	-80
-74	-76
-76	-70
-82	-78
-82	-80
-84	-94
-82	-104
-80	-116
-78	-132
-72	-136
-64	-138
-60	-148
-64	-150
-62	-148
-56	-142
-54	-136
-56	-120
-60	-110
-62	-98
-68	-92
-74	-82
-78	-74
-80	-74
-80	-80
-86	-86
-84	-100
-78	-108
-78	-120
-72	-124
-68	-132
-66	-132
-64	-136
-64	-136
-58	-136
-56	-136
-54	-140
-48	-128
-50	-114
-52	-104
-56	-98
-70	-90
-70	-82
-76	-78
-80	-84
-80	-82
-76	-94
-74	-102
-66	-112
-64	-124
-64	-130
-60	-136
-62	-134
-58	-138
-58	-136
-56	-138
-54	-134
-52	-130
-50	-114
-62	-100
-62	-86
-72	-86
-72	-82
-80	-80
-78	-90
-74	-90
-78	-102
-78	-116
-72	-126
-72	-134
-64	-134
-60	-138
-60	-140
-58	-138
-52	-136
-54	-138
-48	-132
-54	-122
-56	-110
-58	-98
-60	-92
-62	-84
-74	-74
-72	-78
-78	-76
-80	-92
-74	-102
-74	-120
-68	-128
-62	-136
-62	-136
-56	-140
-56	-148
-48	-150
-52	-142
-50	-140
-46	-136
-44	-134
-46	-122
-48	-112
-62	-96
-56	-82
-68	-74
-76	-72
-84	-76
-84	-84
-78	-94
-82	-110
-74	-124
-68	-126
-62	-136
-62	-138
-62	-138
-56	-140
-60	-138
-50	-136
-54	-140
-48	-130
-50	-114
-60	-100
-66	-88
-74	-76
-72	-74
-72	-76
-78	-82
-80	-94
-78	-106
-74	-118
-72	-120
-74	-124
-68	-128
-68	-132
-66	-134
-66	-136
-60	-136
-64	-132
-58	-130
-50	-126
-56	-116
-56	-106
-62	-96
-68	-88
-74	-78
-76	-84
-78	-86
-74	-94
-74	-100
-74	-114
-70	-128
-62	-132
-58	-146
-56	-146
-58	-144
-52	-140
-54	-136
-48	-132
-44	-128
-46	-120
-48	-104
-54	-90
-58	-78
-68	-68
-70	-60
-72	-68
-76	-76
-80	-86
-74	-98
-74	-108
-70	-124
-68	-130
-60	-130
-54	-134
-52	-138
-52	-136
-48	-138
-50	-136
-52	-140
-52	-126
-48	-112
-54	-100
-58	-94
-60	-88
-66	-88
-68	-92
-72	-90
-74	-88
-76	-100
-74	-106
-72	-116
-70	-126
-62	-132
-62	-136
-56	-142
-52	-142
-52	-140
-50	-136
-48	-132
-44	-120
-48	-110
-54	-96
-54	-88
-62	-90
-62	-80
-68	-76
-70	-68
-76	-78
-78	-88
-80	-104
-70	-120
-64	-128
-58	-134
-52	-140
-52	-136
-52	-132
-56	-134
-50	-142
-48	-138
-54	-128
-56	-106
-52	-96
-62	-80
-64	-80
-66	-72
-68	-72
-76	-72
-80	-82
-82	-92
-84	-100
-78	-112
-78	-118
-74	-126
-70	-130
-62	-132
-56	-130
-52	-126
-46	-134
-48	-132
-50	-118
-52	-102
-50	-94
-60	-78
-66	-68
-72	-66
-74	-68
-82	-72
-76	-86
-76	-98
-74	-112
-74	-124
-70	-132
-64	-136
-62	-138
-62	-144
-60	-142
-56	-138
-62	-146
-56	-136
-60	-126
-60	-116
-60	-104
-64	-92
-66	-84
-72	-78
-80	-86
-84	-86
-80	-92
-82	-102
-74	-114
-78	-128
-72	-142
-70	-142
-74	-146
-64	-152
-66	-148
-62	-144
-64	-144
-66	-140
-64	-128
-64	-116
-66	-112
-66	-102
-70	-86
-78	-82
-78	-82
-82	-86
-82	-94
-82	-108
-80	-124
-74	-138
-70	-142
-66	-144
-68	-144
-60	-146
-62	-146
-60	-136
-56	-142
-54	-130
-50	-122
-56	-106
-56	-96
-62	-88
-62	-76
-68	-74
-74	-76
-78	-80
-80	-86
-80	-100
-74	-118
-72	-130
-66	-144
-58	-146
-64	-144
-58	-144
-58	-146
-56	-150
-54	-152
-50	-138
-46	-124
-50	-112
-58	-92
-64	-76
-72	-68
-72	-62
-80	-62
-78	-74
-80	-78
-82	-100
-76	-110
-72	-124
-66	-134
-62	-142
-62	-138
-56	-140
-54	-138
-54	-134
-52	-138
-50	-134
-50	-128
-52	-116
-58	-100
-64	-84
-68	-82
-74	-76
-76	-76
-78	-82
-80	-92
-84	-98
-78	-110
-76	-128
-66	-134
-64	-142
-66	-142
-62	-140
-62	-140
-60	-136
-58	-138
-56	-132
-54	-122
-58	-108
-58	-98
-64	-88
-68	-80
-72	-70
-78	-70
-78	-82
-84	-86
-82	-98
-80	-114
-78	-124
-72	-136
-64	-142
-64	-140
-66	-138
-68	-138
-64	-140
-62	-144
-64	-140
-56	-132
-66	-106
-70	-92
-78	-78
-82	-66
-90	-64
-94	-66
-94	-78
-94	-86
-90	-106
-88	-116
-80	-126
-84	-126
-74	-136
-74	-138
-68	-136
-68	-138
-64	-136
-62	-132
-76	-132
-66	-118
-60	-112
-70	-100
-70	-92
-70	-80
-74	-74
-76	-74
-82	-76
-80	-84
-84	-96
-82	-112
-82	-118
-80	-128
-74	-132
-74	-136
-66	-132
-70	-132
-66	-130
-64	-126
-60	-124
-62	-110
-62	-98
-66	-82
-72	-72
-78	-62
-78	-64
-76	-64
-80	-72
-84	-86
-74	-98
-74	-112
-74	-126
-66	-134
-62	-136
-62	-136
-62	-146
-58	-136
-56	-136
-54	-134
-58	-120
-56	-112
-62	-96
-66	-82
-68	-72
-74	-72
-78	-64
-82	-66
-84	-74
-92	-84
-90	-96
-84	-110
-78	-124
-74	-124
-68	-128
-62	-130
-62	-130
-66	-128
-68	-130
-66	-128
-66	-132
-60	-116
-64	-106
-62	-94
-70	-88
-72	-76
-74	-74
-82	-72
-82	-78
-82	-84
-84	-100
-80	-112
-78	-122
-74	-134
-70	-142
-62	-146
-58	-154
-52	-146
-56	-134
-64	-132
-64	-128
-60	-114
-68	-104
-76	-86
-80	-76
-82	-60
-88	-64
-88	-72
-88	-80
-88	-94
-84	-108
-80	-110
-78	-124
-72	-136
-68	-132
-66	-138
-66	-138
-66	-136
-64	-134
-62	-130
-66	-130
-64	-114
-62	-108
-72	-100
-72	-92
-80	-86
-82	-82
-84	-82
-88	-86
-84	-96
-84	-110
-84	-122
-72	-130
-72	-128
-76	-132
-72	-132
-66	-134
-66	-132
-70	-126
-66	-134
-62	-130
-64	-120
-72	-104
-70	-88
-76	-80
-80	-76
-82	-70
-84	-78
-86	-78
-90	-86
-86	-100
-88	-116
-86	-126
-78	-138
-70	-142
-66	-148
-70	-146
-66	-142
-70	-140
-68	-136
-64	-134
-56	-124
-64	-112
-66	-108
-64	-96
-76	-88
-78	-80
-88	-86
-88	-90
-92	-98
-88	-102
-92	-114
-92	-128
-82	-132
-82	-136
-74	-142
-64	-140
-66	-142
-70	-142
-68	-144
-66	-142
-62	-132
-62	-120
-72	-100
-80	-90
-82	-86
-90	-90
-92	-94
-92	-90
-90	-98
-90	-108
-86	-122
-86	-132
-80	-140
-80	-144
-74	-148
-76	-144
-70	-150
-74	-148
-74	-148
-70	-144
-72	-126
-74	-114
-80	-104
-78	-94
-90	-82
-88	-82
-92	-86
-90	-90
-92	-98
-96	-112
-94	-130
-86	-144
-84	-148
-78	-154
-80	-158
-74	-156
-76	-156
-68	-154
-72	-150
-74	-144
-74	-130
-76	-118
-78	-106
-76	-98
-86	-90
-92	-90
-90	-90
-102	-96
-90	-102
-92	-120
-88	-128
-88	-140
-88	-148
-84	-152
-82	-162
-72	-162
-74	-162
-72	-156
-74	-156
-70	-148
-66	-136
-76	-126
-78	-118
-80	-100
-86	-90
-86	-84
-86	-90
-88	-98
-90	-108
-86	-122
-86	-126
-82	-134
-78	-144
-76	-148
-78	-150
-74	-154
-72	-148
-70	-148
-70	-144
-70	-144
-70	-130
-70	-126
-70	-112
-70	-104
-74	-94
-76	-80
-82	-80
-88	-84
-86	-100
-88	-112
-84	-126
-76	-136
-74	-144
-74	-152
-72	-150
-70	-146
-70	-144
-68	-142
-66	-144
-66	-142
-66	-128
-72	-118
-78	-102
-80	-98
-78	-86
-86	-86
-94	-88
-96	-92
-90	-100
-90	-116
-88	-130
-88	-136
-82	-146
-80	-150
-72	-152
-72	-156
-70	-152
-64	-154
-64	-152
-62	-150
-62	-140
-64	-124
-66	-108
-76	-94
-76	-90
-84	-90
-88	-88
-88	-98
-88	-108
-84	-116
-82	-126
-82	-142
-78	-148
-72	-148
-72	-154
-72	-152
-68	-150
-70	-148
-68	-148
-66	-140
-64	-130
-68	-120
-68	-112
-76	-104
-74	-98
-76	-90
-86	-94
-86	-98
-90	-104
-90	-116
-86	-128
-80	-138
-76	-140
-70	-146
-62	-144
-60	-144
-62	-146
-62	-148
-62	-146
-56	-138
-60	-130
-60	-118
-64	-108
-70	-98
-70	-94
-82	-88
-80	-92
-72	-96
-80	-106
-80	-116
-76	-134
-68	-148
-60	-148
-56	-150
-58	-150
-58	-148
-58	-144
-56	-146
-56	-140
-52	-142
-48	-132
-54	-114
-60	-100
-66	-88
-72	-86
-78	-86
-82	-86
-80	-88
-84	-98
-76	-112
-72	-124
-68	-130
-62	-138
-58	-144
-54	-140
-52	-142
-50	-146
-46	-152
-46	-146
-46	-132
-52	-114
-58	-98
-64	-92
-64	-88
-66	-84
-70	-78
-76	-82
-74	-92
-78	-98
-80	-112
-74	-124
-68	-134
-62	-136
-62	-144
-62	-146
-58	-148
-60	-148
-56	-142
-52	-142
-54	-136
-54	-126
-58	-116
-62	-98
-62	-90
-70	-82
-74	-86
-76	-82
-78	-88
-80	-100
-78	-116
-70	-126
-72	-136
-66	-144
-64	-140
-60	-144
-60	-144
-58	-142
-62	-146
-54	-144
-50	-148
-48	-128
-50	-114
-54	-98
-60	-90
-66	-78
-72	-74
-76	-78
-80	-84
-78	-102
-78	-112
-74	-124
-70	-140
-66	-144
-68	-152
-64	-152
-60	-150
-58	-146
-56	-144
-54	-142
-52	-138
-52	-134
-54	-112
-58	-102
-66	-98
-60	-100
-66	-86
-76	-84
-82	-90
-80	-98
-82	-114
-76	-130
-70	-132
-70	-140
-64	-142
-62	-140
-60	-140
-58	-140
-60	-146
-56	-140
-52	-134
-60	-122
-60	-112
-64	-98
-66	-92
-68	-84
-78	-84
-80	-90
-84	-94
-84	-100
-78	-118
-80	-126
-72	-136
-72	-142
-68	-144
-64	-146
-60	-150
-62	-144
-60	-148
-54	-144
-60	-134
-60	-122
-68	-110
-64	-102
-70	-90
-72	-84
-80	-80
-84	-84
-86	-90
-88	-102
-86	-114
-82	-130
-78	-138
-76	-142
-66	-152
-66	-160
-60	-156
-56	-146
-60	-140
-58	-136
-60	-132
-58	-118
-60	-108
-62	-92
-70	-90
-78	-80
-74	-84
-80	-90
-76	-102
-78	-120
-68	-130
-66	-146
-62	-144
-66	-138
-66	-136
-62	-138
-68	-138
-62	-138
-64	-138
-58	-142
-52	-136
-54	-124
-56	-110
-62	-92
-64	-86
-70	-80
-70	-84
-74	-96
-74	-110
-82	-114
-74	-114
-74	-120
-72	-130
-70	-132
-66	-140
-60	-144
-62	-142
-58	-146
-58	-144
-60	-146
-60	-138
-56	-126
-56	-112
-60	-100
-66	-90
-74	-80
-76	-76
-80	-82
-80	-92
-76	-104
-76	-120
-74	-130
-72	-142
-60	-148
-64	-148
-60	-148
-56	-146
-52	-150
-52	-148
-52	-144
-46	-134
-50	-120
-58	-112
-60	-100
-68	-90
-72	-80
-78	-74
-82	-76
-82	-90
-80	-98
-84	-108
-80	-124
-72	-132
-70	-140
-72	-142
-66	-146
-62	-144
-60	-144
-52	-148
-52	-148
-52	-136
-56	-118
-62	-108
-68	-92
-74	-86
-72	-80
-76	-76
-84	-82
-80	-94
-82	-100
-78	-112
-72	-124
-70	-128
-66	-138
-66	-136
-62	-140
-60	-140
-60	-140
-62	-142
-56	-136
-56	-128
-50	-114
-58	-100
-64	-94
-66	-80
-70	-78
-76	-82
-76	-88
-82	-96
-82	-106
-76	-114
-66	-124
-62	-132
-60	-142
-60	-148
-64	-150
-58	-148
-58	-152
-52	-146
-48	-140
-54	-130
-50	-114
-52	-106
-58	-94
-60	-92
-68	-88
-70	-88
-76	-86
-80	-88
-76	-96
-76	-110
-72	-122
-62	-132
-64	-136
-62	-138
-62	-140
-52	-144
-52	-148
-50	-154
-46	-148
-46	-142
-48	-128
-48	-120
-58	-108
-62	-100
-66	-92
-76	-92
-76	-90
-72	-96
-72	-110
-70	-120
-68	-132
-62	-144
-62	-148
-58	-150
-56	-152
-54	-150
-50	-148
-46	-152
-50	-146
-50	-138
-48	-124
-58	-106
-58	-100
-56	-98
-60	-86
-70	-84
-76	-88
-80	-92
-78	-106
-72	-120
-70	-134
-66	-136
-68	-140
-58	-144
-60	-144
-56	-150
-58	-142
-52	-140
-50	-142
-50	-134
-46	-124
-60	-108
-66	-98
-64	-90
-70	-82
-72	-82
-76	-90
-80	-98
-72	-108
-78	-118
-80	-128
-72	-134
-70	-142
-68	-154
-64	-150
-70	-152
-64	-148
-58	-144
-58	-140
-58	-132
-58	-118
-54	-108
-60	-90
-68	-88
-72	-82
-80	-84
-80	-88
-80	-100
-80	-102
-76	-112
-72	-126
-68	-140
-60	-140
-64	-148
-56	-150
-64	-150
-58	-152
-60	-160
-54	-154
-50	-142
-52	-122
-58	-108
-64	-90
-70	-86
-76	-86
-80	-84
-84	-86
-84	-92
-84	-100
-78	-114
-74	-124
-66	-130
-64	-138
-62	-148
-56	-148
-58	-156
-50	-148
-56	-150
-52	-138
-54	-134
-52	-124
-60	-112
-64	-96
-64	-88
-62	-84
-72	-84
-64	-84
-72	-86
-72	-96
-70	-116
-68	-114
-48	-138
-54	-144
-52	-148
-48	-148
-46	-148
-50	-148
-46	-138
-46	-134
-48	-124
-52	-114
-56	-106
-64	-98
-66	-88
-68	-82
-70	-88
-76	-86
-78	-96
-80	-100
-74	-110
-72	-124
-70	-132
-68	-140
-64	-144
-64	-148
-56	-150
-56	-150
-52	-152
-46	-162
-38	-138
-42	-120
-52	-106
-58	-98
-62	-88
-72	-86
-74	-86
-76	-96
-72	-98
-76	-112
-70	-124
-64	-142
-60	-154
-60	-156
-62	-154
-62	-148
-60	-146
-62	-144
-54	-146
-50	-142
-54	-138
-52	-124
-56	-110
-62	-102
-66	-90
-70	-90
-76	-88
-70	-92
-80	-96
-78	-114
-76	-126
-74	-138
-70	-144
-64	-148
-62	-150
-56	-154
-62	-152
-56	-152
-56	-154
-54	-150
-52	-136
-50	-122
-54	-114
-62	-100
-70	-90
-74	-88
-76	-94
-74	-102
-76	-106
-72	-112
-80	-118
-74	-132
-72	-132
-64	-144
-62	-148
-60	-148
-56	-150
-54	-156
-54	-158
-48	-158
-52	-146
-54	-134
-60	-116
-62	-104
-66	-94
-74	-86
-72	-90
-72	-90
-76	-92
-74	-102
-78	-112
-70	-128
-68	-134
-60	-138
-56	-142
-52	-146
-52	-146
-56	-150
-52	-150
-54	-146
-48	-136
-54	-118
-56	-100
-60	-90
-58	-84
-68	-84
-66	-84
-72	-84
-72	-92
-70	-104
-70	-116
-66	-126
-60	-132
-60	-144
-58	-146
-54	-148
-52	-148
-46	-142
-46	-144
-46	-142
-48	-130
-46	-120
-50	-104
-54	-94
-58	-82
-68	-80
-70	-78
-72	-86
-64	-100
-70	-112
-72	-126
-66	-134
-64	-140
-60	-144
-54	-144
-56	-146
-50	-148
-48	-146
-44	-144
-46	-142
-44	-126
-44	-110
-50	-100
-50	-92
-62	-92
-68	-84
-68	-84
-70	-92
-70	-100
-66	-108
-64	-120
-60	-138
-56	-148
-50	-148
-50	-158
-52	-158
-50	-154
-50	-150
-56	-148
-56	-142
-46	-136
-56	-122
-52	-106
-62	-98
-66	-94
-70	-84
-76	-80
-74	-92
-78	-104
-74	-112
-70	-124
-68	-128
-66	-140
-62	-140
-58	-146
-56	-148
-56	-146
-56	-144
-50	-146
-54	-136
-50	-134
-54	-118
-56	-112
-60	-98
-64	-86
-66	-88
-72	-94
-76	-96
-76	-104
-74	-114
-72	-128
-72	-136
-66	-144
-62	-148
-60	-150
-56	-152
-54	-148
-54	-148
-48	-150
-48	-144
-48	-134
-50	-124
-56	-104
-56	-96
-66	-94
-64	-84
-72	-82
-74	-86
-78	-98
-72	-112
-70	-126
-66	-144
-60	-148
-56	-142
-58	-146
-50	-150
-50	-146
-46	-142
-46	-142
-42	-136
-50	-128
-50	-114
-50	-106
-56	-98
-56	-90
-60	-84
-66	-86
-70	-98
-66	-108
-66	-118
-62	-126
-56	-134
-54	-140
-46	-146
-50	-144
-46	-146
-54	-152
-42	-150
-46	-154
-42	-156
-44	-146
-42	-116
-48	-96
-60	-84
-60	-74
-66	-80
-70	-78
-74	-80
-72	-90
-74	-106
-70	-114
-68	-132
-60	-138
-54	-144
-56	-150
-46	-148
-52	-146
-52	-140
-48	-142
-52	-136
-46	-124
-44	-110
-48	-94
-52	-82
-52	-78
-62	-70
-64	-78
-68	-78
-66	-90
-66	-102
-66	-118
-66	-130
-54	-136
-50	-142
-46	-146
-44	-144
-42	-144
-42	-144
-38	-142
-34	-136
-38	-124
-40	-112
-46	-104
-52	-92
-52	-82
-62	-80
-64	-80
-68	-84
-70	-96
-74	-110
-72	-126
-62	-138
-62	-150
-52	-152
-48	-150
-48	-150
-38	-152
-40	-156
-36	-150
-40	-148
-42	-130
-46	-110
-50	-102
-50	-88
-58	-90
-62	-82
-64	-82
-68	-90
-68	-102
-70	-110
-66	-122
-64	-130
-60	-146
-54	-146
-48	-150
-46	-150
-44	-154
-42	-150
-44	-146
-40	-148
-38	-136
-42	-120
-50	-102
-50	-88
-48	-84
-54	-76
-64	-86
-62	-84
-62	-88
-70	-98
-66	-112
-58	-126
-54	-132
-48	-140
-46	-144
-44	-144
-42	-142
-40	-138
-38	-142
-34	-144
-36	-132
-38	-112
-44	-98
-46	-84
-54	-76
-60	-74
-60	-76
-58	-78
-66	-84
-64	-98
-62	-108
-50	-124
-54	-136
-50	-140
-46	-140
-42	-136
-40	-132
-44	-134
-42	-132
-38	-130
-40	-116
-40	-110
-44	-96
-52	-92
-48	-86
-54	-82
-54	-78
-60	-82
-66	-90
-62	-102
-60	-120
-60	-122
-56	-124
-54	-128
-50	-130
-52	-132
-48	-136
-48	-138
-44	-138
-44	-132
-46	-124
-50	-114
-52	-98
-50	-90
-62	-82
-62	-78
-66	-82
-66	-86
-60	-92
-62	-106
-62	-112
-54	-124
-58	-136
-52	-138
-50	-144
-50	-148
-46	-144
-46	-138
-48	-136
-46	-130
-46	-124
-38	-108
-46	-94
-52	-84
-52	-76
-62	-76
-60	-68
-64	-84
-60	-88
-66	-98
-60	-110
-58	-128
-52	-130
-48	-136
-46	-142
-46	-138
-38	-142
-36	-138
-32	-142
-34	-142
-30	-128
-32	-116
-42	-96
-46	-80
-54	-72
-62	-66
-68	-66
-72	-76
-74	-88
-70	-102
-66	-116
-60	-126
-56	-134
-52	-134
-50	-136
-46	-146
-38	-144
-42	-146
-40	-146
-32	-148
-36	-134
-38	-116
-48	-100
-50	-88
-52	-76
-56	-74
-58	-78
-60	-82
-56	-94
-56	-104
-54	-118
-52	-132
-52	-144
-50	-154
-48	-148
-40	-146
-42	-144
-46	-136
-42	-142
-42	-138
-34	-134
-54	-122
-42	-108
-48	-92
-52	-82
-56	-74
-62	-74
-64	-84
-66	-88
-64	-102
-64	-120
-56	-122
-56	-138
-46	-140
-46	-140
-42	-144
-40	-148
-40	-148
-32	-140
-32	-134
-36	-126
-38	-114
-40	-104
-46	-100
-48	-94
-44	-90
-46	-94
-50	-98
-52	-104
-56	-114
-60	-124
-52	-128
-50	-130
-50	-136
-46	-142
-44	-146
-44	-142
-38	-142
-42	-148
-36	-140
-36	-118
-32	-108
-42	-102
-48	-88
-52	-80
-58	-76
-62	-82
-62	-88
-56	-98
-52	-110
-54	-122
-46	-126
-46	-134
-44	-142
-44	-138
-40	-142
-42	-142
-38	-144
-36	-144
-32	-142
-32	-126
-38	-110
-36	-98
-42	-94
-44	-88
-48	-78
-52	-80
-56	-88
-60	-90
-58	-102
-60	-112
-52	-124
-52	-132
-50	-140
-44	-148
-44	-144
-44	-144
-40	-138
-38	-140
-42	-142
-38	-126
-42	-112
-52	-102
-52	-94
-56	-88
-60	-88
-64	-92
-62	-96
-62	-108
-66	-122
-60	-136
-50	-138
-50	-146
-48	-144
-46	-146
-42	-140
-42	-140
-40	-140
-42	-144
-40	-134
-42	-128
-42	-122
-46	-108
-50	-100
-54	-88
-52	-84
-62	-82
-62	-86
-64	-92
-64	-112
-56	-122
-58	-130
-48	-144
-46	-150
-44	-158
-40	-160
-36	-156
-32	-146
-32	-148
-26	-140
-30	-132
-36	-120
-40	-104
-50	-96
-50	-84
-62	-82
-62	-84
-60	-84
-62	-100
-60	-102
-54	-122
-50	-132
-44	-138
-46	-144
-42	-146
-42	-144
-36	-146
-36	-146
-38	-146
-36	-144
-40	-124
-34	-114
-50	-102
-54	-90
-58	-90
-56	-84
-60	-88
-62	-94
-60	-104
-60	-116
-54	-132
-46	-148
-48	-156
-40	-152
-42	-148
-40	-146
-38	-142
-38	-142
-38	-146
-40	-138
-34	-118
-40	-114
-46	-104
-46	-94
-50	-84
-54	-88
-58	-94
-60	-102
-58	-104
-58	-110
-58	-120
-52	-134
-46	-146
-42	-148
-38	-150
-34	-154
-36	-152
-34	-154
-34	-154
-34	-146
-36	-136
-34	-120
-44	-106
-44	-100
-50	-96
-56	-94
-60	-96
-58	-104
-56	-116
-54	-124
-46	-132
-42	-138
-38	-138
-36	-144
-34	-150
-32	-148
-30	-140
-30	-142
-32	-146
-28	-136
-30	-126
-32	-114
-32	-96
-36	-94
-44	-88
-46	-88
-50	-86
-54	-92
-50	-104
-48	-116
-50	-128
-48	-130
-46	-142
-42	-142
-36	-146
-32	-152
-28	-152
-28	-154
-30	-146
-32	-130
-30	-116
-34	-98
-38	-88
-42	-82
-52	-70
-52	-66
-52	-78
-52	-80
-56	-90
-52	-102
-52	-112
-48	-122
-46	-134
-42	-144
-36	-146
-36	-144
-28	-138
-32	-132
-36	-130
-36	-124
-40	-108
-44	-104
-52	-92
-50	-84
-56	-80
-58	-76
-62	-82
-66	-90
-70	-92
-66	-104
-68	-112
-64	-120
-58	-134
-54	-144
-44	-146
-44	-144
-44	-140
-46	-140
-44	-138
-44	-140
-44	-128
-46	-114
-48	-94
-48	-86
-52	-72
-58	-72
-60	-70
-66	-74
-68	-84
-66	-90
-62	-106
-54	-116
-52	-124
-48	-126
-44	-130
-42	-132
-40	-130
-36	-130
-38	-132
-40	-122
-38	-116
-46	-104
-48	-90
-54	-86
-54	-80
-60	-72
-66	-78
-62	-84
-68	-98
-66	-106
-66	-120
-58	-130
-62	-142
-54	-136
-52	-134
-46	-132
-48	-130
-48	-128
-50	-138
-46	-136
-46	-136
-58	-114
-52	-90
-60	-76
-64	-72
-66	-68
-76	-78
-74	-84
-74	-88
-70	-96
-70	-106
-68	-118
-60	-126
-58	-134
-58	-138
-52	-142
-46	-140
-46	-144
-46	-142
-46	-130
-44	-120
-48	-100
-56	-98
-54	-84
-54	-76
-62	-78
-64	-80
-62	-86
-60	-90
-62	-102
-60	-112
-58	-122
-60	-124
-50	-128
-54	-132
-46	-134
-42	-134
-40	-132
-38	-134
-38	-130
-36	-114
-38	-102
-44	-92
-46	-84
-50	-68
-58	-70
-62	-72
-64	-80
-62	-86
-58	-102
-54	-114
-56	-122
-50	-126
-44	-136
-48	-140
-48	-146
-40	-148
-38	-152
-32	-142
-30	-132
-36	-112
-38	-98
-38	-88
-52	-80
-50	-76
-56	-82
-58	-78
-54	-84
-54	-94
-56	-108
-56	-116
-50	-120
-46	-132
-48	-134
-38	-142
-42	-138
-40	-136
-40	-136
-38	-134
-32	-124
-32	-116
-40	-100
-44	-94
-46	-84
-56	-76
-64	-72
-64	-72
-66	-82
-60	-94
-60	-106
-54	-114
-52	-126
-48	-136
-46	-140
-44	-144
-44	-142
-42	-142
-38	-136
-38	-134
-40	-124
-42	-110
-44	-98
-50	-90
-56	-78
-56	-72
-66	-74
-68	-68
-70	-84
-70	-94
-68	-108
-64	-130
-54	-138
-50	-138
-48	-140
-44	-136
-48	-134
-46	-134
-48	-142
-50	-134
-52	-130
-56	-110
-50	-100
-54	-82
-56	-68
-60	-62
-66	-58
-68	-66
-70	-68
-74	-78
-68	-94
-70	-106
-68	-118
-62	-126
-56	-128
-54	-130
-50	-126
-46	-128
-44	-126
-46	-128
-44	-120
-46	-108
-50	-100
-54	-86
-58	-78
-64	-70
-66	-70
-72	-74
-74	-82
-74	-90
-70	-94
-72	-114
-64	-116
-58	-132
-56	-136
-54	-136
-48	-134
-50	-142
-44	-140
-40	-140
-46	-126
-52	-100
-66	-88
-60	-74
-64	-72
-72	-64
-74	-64
-74	-64
-80	-78
-80	-88
-78	-102
-72	-118
-66	-126
-60	-130
-58	-136
-60	-136
-54	-134
-52	-134
-54	-134
-54	-126
-50	-124
-44	-112
-56	-100
-60	-88
-58	-80
-70	-64
-70	-64
-74	-72
-80	-78
-70	-92
-72	-100
-68	-110
-62	-124
-62	-132
-62	-136
-54	-142
-56	-134
-50	-134
-48	-134
-50	-132
-44	-126
-44	-110
-50	-104
-56	-92
-60	-76
-60	-70
-68	-72
-68	-74
-70	-80
-74	-96
-68	-106
-70	-116
-64	-126
-56	-134
-56	-142
-50	-144
-54	-144
-42	-140
-48	-140
-46	-136
-46	-128
-48	-114
-54	-98
-56	-90
-54	-84
-66	-80
-68	-74
-70	-80
-72	-96
-72	-106
-66	-120
-62	-118
-58	-130
-54	-132
-50	-138
-52	-140
-46	-144
-46	-138
-46	-142
-48	-136
-44	-124
-46	-110
-50	-96
-52	-88
-56	-84
-60	-80
-64	-82
-62	-86
-62	-92
-66	-100
-66	-110
-62	-126
-58	-136
-56	-148
-56	-144
-50	-146
-50	-142
-48	-140
-50	-140
-50	-132
-42	-128
-42	-124
-48	-108
-56	-102
-56	-90
-62	-86
-64	-88
-60	-96
-60	-96
-60	-94
-62	-100
-64	-108
-64	-118
-60	-130
-52	-136
-54	-136
-50	-134
-44	-134
-38	-136
-40	-134
-38	-122
-44	-108
-46	-96
-50	-86
-56	-76
-60	-68
-62	-68
-62	-78
-62	-82
-64	-94
-62	-110
-56	-112
-54	-124
-46	-136
-42	-144
-38	-142
-38	-140
-34	-138
-42	-136
-38	-134
-40	-124
-42	-112
-48	-102
-42	-102
-50	-94
-58	-80
-54	-74
-58	-74
-66	-76
-60	-92
-56	-102
-54	-106
-52	-122
-42	-126
-44	-132
-38	-136
-38	-134
-38	-140
-34	-138
-32	-136
-30	-124
-34	-106
-34	-96
-40	-84
-44	-74
-50	-72
-56	-74
-60	-80
-60	-88
-56	-98
-56	-114
-52	-120
-46	-126
-46	-130
-44	-134
-38	-132
-40	-136
-32	-136
-34	-136
-36	-132
-30	-126
-34	-110
-36	-100
-46	-86
-46	-80
-52	-76
-58	-74
-62	-74
-58	-80
-62	-88
-58	-102
-58	-118
-52	-122
-48	-136
-50	-138
-40	-148
-40	-148
-32	-148
-34	-144
-36	-132
-34	-118
-36	-100
-36	-88
-42	-82
-42	-72
-46	-64
-50	-70
-54	-70
-56	-82
-52	-92
-50	-100
-48	-116
-44	-122
-38	-134
-38	-134
-38	-134
-38	-128
-34	-134
-30	-128
-38	-130
-30	-118
-34	-112
-40	-102
-42	-90
-52	-78
-58	-72
-62	-60
-68	-62
-66	-76
-64	-88
-60	-104
-56	-120
-50	-128
-48	-136
-46	-136
-40	-130
-38	-130
-40	-128
-36	-138
-40	-136
-32	-124
-38	-108
-42	-96
-48	-88
-50	-76
-52	-70
-58	-72
-62	-78
-62	-82
-62	-98
-60	-106
-56	-128
-44	-138
-44	-136
-36	-136
-40	-134
-34	-132
-34	-132
-32	-134
-34	-132
-32	-124
-34	-106
-36	-100
-40	-86
-42	-80
-52	-76
-52	-72
-58	-74
-62	-86
-60	-92
-62	-108
-58	-120
-54	-124
-54	-128
-52	-126
-48	-130
-48	-130
-46	-132
-42	-136
-38	-132
-38	-122
-40	-112
-38	-98
-46	-88
-52	-74
-56	-70
-60	-72
-54	-78
-62	-86
-58	-96
-56	-110
-50	-118
-46	-124
-44	-130
-44	-132
-36	-136
-36	-138
-32	-138
-30	-134
-32	-132
-24	-122
-24	-106
-34	-88
-40	-78
-42	-70
-52	-66
-54	-64
-58	-70
-60	-84
-60	-92
-56	-108
-48	-122
-46	-126
-44	-132
-38	-128
-38	-128
-36	-132
-36	-128
-32	-126
-26	-118
-30	-112
-36	-98
-36	-88
-40	-78
-40	-66
-50	-64
-54	-64
-56	-66
-56	-80
-54	-92
-58	-102
-52	-118
-48	-126
-42	-128
-40	-130
-40	-132
-36	-138
-34	-140
-30	-140
-30	-134
-30	-130
-32	-110
-40	-86
-48	-76
-54	-64
-66	-64
-66	-66
-66	-74
-66	-82
-66	-98
-62	-112
-60	-126
-50	-130
-50	-136
-48	-140
-48	-138
-50	-144
-46	-146
-44	-152
-36	-148
-30	-130
-32	-112
-40	-92
-52	-76
-56	-70
-60	-68
-64	-70
-64	-74
-64	-80
-66	-98
-58	-108
-60	-122
-52	-126
-52	-134
-50	-138
-42	-140
-38	-144
-36	-144
-32	-138
-36	-130
-32	-124
-38	-106
-36	-94
-38	-84
-46	-72
-44	-70
-54	-72
-52	-80
-56	-80
-50	-96
-54	-106
-52	-114
-44	-126
-42	-132
-38	-136
-34	-138
-28	-140
-30	-132
-32	-136
-34	-132
-32	-118
-32	-110
-34	-96
-36	-92
-46	-80
-48	-74
-52	-74
-52	-76
-52	-84
-56	-98
-46	-114
-48	-126
-40	-134
-38	-138
-36	-142
-30	-136
-28	-142
-26	-136
-30	-134
-28	-128
-30	-118
-32	-110
-36	-100
-40	-92
-46	-80
-52	-84
-54	-84
-54	-88
-56	-98
-56	-110
-52	-118
-44	-136
-38	-140
-30	-150
-36	-150
-30	-142
-34	-144
-30	-142
-30	-138
-28	-128
-32	-118
-40	-110
-34	-94
-36	-88
-42	-82
-44	-74
-48	-78
-54	-80
-52	-96
-50	-102
-46	-112
-40	-128
-36	-138
-34	-150
-34	-148
-24	-152
-28	-152
-20	-146
-24	-140
-26	-140
-24	-126
-28	-112
-32	-100
-34	-92
-36	-82
-36	-74
-38	-80
-48	-84
-52	-100
-46	-114
-48	-130
-40	-136
-36	-132
-30	-138
-32	-138
-32	-148
-24	-150
-22	-138
-18	-138
-16	-132
-18	-126
-22	-108
-30	-94
-30	-86
-36	-78
-40	-74
-40	-76
-44	-80
-42	-94
-38	-110
-38	-124
-38	-130
-32	-130
-34	-134
-34	-134
-34	-136
-30	-138
-28	-138
-26	-136
-24	-138
-28	-132
-26	-118
-28	-110
-38	-108
-38	-96
-42	-90
-46	-82
-58	-88
-54	-92
-50	-102
-56	-118
-46	-134
-40	-140
-36	-150
-30	-156
-30	-154
-28	-148
-26	-146
-22	-138
-24	-140
-26	-128
-28	-116
-32	-104
-38	-96
-44	-86
-46	-82
-50	-86
-56	-92
-56	-102
-58	-114
-52	-122
-50	-140
-44	-148
-32	-152
-32	-156
-36	-160
-30	-160
-30	-156
-30	-154
-30	-148
-26	-138
-32	-120
-34	-104
-34	-94
-42	-84
-38	-80
-46	-84
-42	-86
-52	-98
-52	-106
-44	-124
-42	-136
-38	-144
-34	-144
-36	-148
-32	-150
-30	-146
-32	-148
-24	-148
-26	-150
-28	-134
-32	-122
-38	-110
-40	-104
-46	-98
-52	-92
-60	-88
-58	-96
-56	-104
-62	-118
-56	-124
-54	-136
-54	-142
-46	-144
-48	-148
-46	-152
-38	-152
-40	-154
-38	-152
-32	-146
-34	-128
-40	-120
-42	-104
-46	-96
-52	-92
-58	-88
-62	-88
-58	-96
-64	-102
-58	-114
-52	-130
-52	-140
-46	-142
-44	-154
-44	-154
-40	-156
-36	-152
-38	-148
-38	-154
-36	-158
-34	-148
-36	-126
-46	-108
-48	-98
-52	-92
-52	-90
-54	-94
-58	-88
-62	-98
-62	-106
-66	-126
-60	-138
-46	-150
-48	-144
-48	-146
-48	-140
-48	-142
-48	-150
-40	-152
-44	-152
-40	-130
-44	-118
-48	-100
-52	-92
-56	-78
-58	-76
-66	-78
-72	-88
-72	-96
-66	-108
-66	-116
-66	-132
-64	-144
-54	-142
-54	-154
-48	-158
-46	-150
-44	-148
-42	-144
-48	-142
-48	-132
-44	-118
-48	-106
-54	-92
-58	-92
-70	-84
-70	-90
-74	-98
-78	-108
-68	-120
-62	-130
-58	-142
-60	-150
-54	-154
-60	-154
-62	-150
-50	-154
-52	-148
-48	-148
-46	-146
-46	-132
-40	-122
-48	-108
-52	-102
-56	-98
-60	-86
-64	-94
-64	-96
-64	-106
-62	-122
-58	-134
-58	-150
-54	-156
-48	-162
-46	-166
-46	-164
-44	-164
-38	-166
-36	-168
-36	-160
-34	-152
-38	-130
-44	-122
-46	-112
-50	-108
-60	-100
-64	-102
-66	-106
-66	-114
-64	-122
-66	-132
-62	-146
-62	-154
-52	-160
-52	-162
-46	-160
-50	-158
-48	-160
-44	-156
-42	-148
-42	-130
-46	-116
-50	-108
-58	-100
-56	-90
-60	-88
-66	-88
-64	-100
-70	-100
-68	-124
-64	-130
-58	-134
-54	-136
-52	-142
-42	-148
-46	-152
-44	-156
-42	-156
-46	-162
-38	-152
-38	-140
-44	-120
-44	-108
-52	-98
-54	-92
-60	-86
-66	-86
-70	-98
-72	-112
-68	-128
-62	-142
-56	-148
-54	-150
-52	-150
-52	-154
-50	-152
-42	-158
-40	-158
-38	-162
-32	-146
-38	-130
-40	-120
-48	-102
-52	-100
-54	-90
-60	-84
-64	-100
-64	-92
-68	-108
-70	-118
-62	-130
-66	-140
-60	-146
-52	-152
-50	-158
-48	-164
-46	-168
-48	-168
-44	-166
-38	-152
-42	-142
-44	-122
-46	-118
-56	-108
-54	-102
-56	-98
-60	-98
-58	-108
-56	-118
-56	-126
-54	-140
-52	-146
-50	-150
-48	-160
-44	-160
-40	-160
-40	-164
-40	-166
-36	-162
-38	-156
-36	-140
-38	-122
-40	-112
-50	-102
-52	-94
-58	-88
-62	-94
-66	-102
-66	-114
-62	-126
-54	-140
-58	-150
-50	-152
-50	-152
-54	-148
-50	-148
-52	-148
-46	-152
-44	-152
-42	-146
-42	-134
-44	-124
-50	-114
-48	-104
-48	-94
-52	-98
-54	-98
-62	-104
-66	-108
-64	-112
-58	-124
-50	-136
-46	-144
-44	-150
-44	-154
-38	-158
-38	-160
-36	-156
-40	-150
-38	-144
-42	-134
-40	-116
-46	-110
-50	-102
-56	-98
-52	-104
-60	-104
-60	-98
-60	-108
-66	-112
-62	-128
-62	-138
-56	-144
-58	-158
-54	-156
-48	-158
-48	-156
-50	-158
-46	-156
-44	-150
-42	-140
-44	-122
-50	-110
-52	-96
-60	-98
-68	-92
-68	-94
-66	-104
-66	-120
-64	-130
-62	-136
-60	-142
-62	-150
-50	-160
-52	-154
-50	-158
-50	-152
-48	-156
-46	-152
-42	-146
-40	-136
-48	-122
-50	-108
-60	-100
-62	-100
-62	-86
-64	-94
-76	-100
-68	-108
-70	-122
-68	-142
-62	-146
-54	-152
-50	-156
-48	-162
-46	-166
-48	-162
-46	-158
-46	-162
-44	-158
-44	-134
-46	-124
-52	-110
-60	-98
-66	-88
-66	-90
-72	-94
-74	-100
-72	-108
-72	-118
-68	-132
-64	-150
-62	-154
-56	-154
-52	-156
-48	-158
-46	-160
-42	-158
-42	-156
-44	-148
-44	-140
-48	-120
-56	-112
-56	-100
-60	-92
-62	-92
-68	-98
-70	-102
-66	-110
-66	-124
-66	-140
-52	-152
-56	-158
-48	-162
-44	-162
-50	-162
-46	-162
-44	-154
-46	-160
-42	-150
-48	-136
-44	-126
-52	-114
-58	-96
-62	-92
-64	-92
-70	-94
-72	-98
-70	-112
-66	-122
-64	-134
-66	-146
-56	-156
-54	-156
-54	-166
-54	-162
-46	-156
-46	-154
-44	-150
-38	-144
-44	-130
-50	-118
-50	-102
-52	-94
-58	-92
-66	-86
-66	-90
-70	-92
-68	-100
-72	-114
-68	-130
-66	-136
-60	-144
-56	-144
-52	-152
-46	-152
-48	-154
-46	-154
-44	-148
-44	-140
-50	-116
-52	-102
-54	-92
-64	-80
-68	-72
-68	-72
-74	-76
-72	-86
-72	-100
-72	-112
-68	-118
-66	-124
-64	-136
-60	-140
-58	-146
-58	-148
-54	-152
-52	-154
-48	-144
-42	-132
-42	-112
-48	-96
-54	-84
-60	-80
-62	-74
-68	-76
-68	-76
-72	-82
-72	-90
-68	-106
-66	-122
-62	-132
-58	-140
-52	-144
-52	-144
-48	-144
-46	-142
-46	-142
-44	-142
-44	-132
-44	-118
-48	-104
-50	-94
-56	-86
-62	-80
-62	-78
-68	-80
-76	-84
-74	-96
-74	-106
-72	-114
-66	-130
-60	-132
-56	-138
-56	-140
-56	-140
-52	-138
-48	-144
-46	-136
-46	-132
-46	-116
-48	-106
-52	-94
-58	-86
-60	-82
-68	-86
-70	-90
-66	-88
-68	-98
-72	-100
-68	-114
-62	-122
-58	-130
-52	-134
-52	-134
-56	-134
-46	-134
-56	-132
-48	-136
-46	-122
-42	-116
-46	-108
-48	-94
-50	-82
-52	-76
-64	-74
-62	-84
-68	-88
-68	-100
-66	-108
-60	-118
-58	-126
-54	-128
-52	-136
-50	-136
-50	-136
-48	-144
-46	-150
-40	-142
-40	-134
-42	-116
-44	-100
-48	-82
-52	-74
-54	-64
-64	-70
-64	-70
-66	-84
-68	-90
-62	-96
-64	-112
-60	-122
-54	-128
-54	-136
-50	-138
-48	-136
-46	-136
-44	-136
-42	-132
-40	-126
-42	-114
-40	-100
-44	-88
-52	-80
-56	-70
-60	-72
-60	-70
-68	-78
-62	-88
-60	-102
-62	-116
-52	-134
-48	-140
-42	-142
-40	-138
-36	-142
-38	-138
-36	-142
-36	-132
-36	-124
-42	-108
-46	-96
-48	-82
-60	-72
-54	-66
-62	-68
-66	-68
-70	-76
-62	-84
-62	-104
-58	-116
-56	-122
-50	-132
-50	-132
-46	-136
-44	-136
-44	-134
-44	-134
-44	-134
-38	-130
-42	-118
-48	-104
-50	-90
-56	-78
-64	-70
-66	-66
-68	-74
-72	-84
-74	-98
-68	-106
-68	-116
-58	-134
-56	-148
-52	-150
-52	-148
-46	-148
-46	-148
-40	-154
-42	-142
-40	-122
-46	-110
-52	-92
-58	-82
-64	-74
-66	-74
-72	-70
-76	-74
-74	-82
-72	-88
-70	-108
-74	-114
-70	-126
-64	-130
-60	-138
-54	-140
-54	-140
-50	-138
-44	-134
-50	-132
-46	-124
-50	-114
-52	-98
-54	-86
-62	-76
-66	-72
-74	-70
-76	-78
-74	-86
-66	-96
-64	-112
-54	-122
-54	-130
-54	-130
-52	-128
-50	-128
-46	-132
-44	-134
-46	-132
-46	-130
-44	-118
-46	-104
-52	-100
-54	-86
-58	-80
-64	-70
-66	-64
-74	-70
-72	-78
-74	-86
-70	-96
-66	-114
-64	-122
-60	-124
-56	-136
-56	-134
-52	-140
-48	-136
-48	-130
-46	-134
-46	-120
-44	-108
-46	-96
-50	-88
-54	-84
-56	-78
-64	-74
-66	-76
-62	-84
-66	-102
-66	-108
-58	-122
-58	-136
-52	-140
-48	-140
-46	-140
-42	-134
-44	-132
-42	-132
-48	-126
-44	-120
-46	-110
-48	-96
-48	-82
-54	-78
-58	-66
-70	-62
-72	-66
-70	-76
-72	-84
-72	-94
-70	-100
-66	-116
-62	-118
-54	-122
-54	-130
-52	-128
-46	-130
-48	-128
-48	-120
-48	-112
-48	-92
-56	-82
-56	-76
-58	-70
-62	-66
-64	-64
-68	-70
-72	-76
-68	-86
-68	-106
-68	-110
-64	-126
-68	-128
-58	-124
-54	-130
-48	-130
-48	-134
-44	-130
-40	-130
-44	-122
-42	-106
-50	-94
-54	-90
-56	-82
-60	-72
-60	-72
-68	-74
-68	-78
-68	-94
-62	-104
-60	-116
-54	-118
-56	-126
-50	-132
-46	-132
-50	-134
-50	-134
-44	-138
-46	-140
-42	-132
-46	-116
-44	-108
-58	-94
-60	-90
-72	-92
-72	-92
-74	-86
-78	-92
-74	-96
-74	-114
-74	-118
-64	-130
-62	-128
-56	-138
-54	-144
-52	-144
-50	-146
-50	-140
-52	-130
-52	-128
-54	-114
-58	-106
-60	-96
-72	-86
-70	-82
-76	-76
-82	-86
-84	-90
-76	-102
-78	-116
-72	-126
-66	-140
-62	-138
-60	-142
-60	-146
-56	-142
-62	-140
-50	-146
-46	-144
-50	-134
-54	-118
-58	-106
-58	-92
-70	-84
-70	-78
-80	-82
-78	-80
-78	-88
-78	-94
-84	-106
-74	-118
-68	-120
-68	-130
-62	-134
-64	-138
-64	-134
-58	-134
-52	-134
-56	-136
-54	-130
-50	-116
-56	-102
-62	-92
-70	-82
-74	-70
-74	-74
-80	-78
-80	-84
-82	-94
-80	-108
-76	-126
-76	-132
-72	-140
-66	-130
-68	-132
-62	-130
-62	-128
-60	-128
-66	-130
-60	-120
-68	-106
-68	-94
-68	-88
-76	-76
-78	-72
-92	-76
-90	-78
-86	-92
-92	-100
-86	-114
-82	-120
-78	-128
-76	-138
-68	-132
-66	-134
-64	-134
-64	-140
-56	-136
-58	-130
-60	-126
-62	-112
-66	-98
-74	-82
-80	-80
-82	-72
-78	-70
-86	-80
-86	-84
-86	-94
-84	-108
-76	-116
-76	-132
-74	-134
-70	-140
-70	-138
-60	-140
-64	-134
-64	-140
-68	-136
-60	-130
-62	-114
-66	-102
-66	-94
-74	-86
-78	-78
-82	-76
-82	-72
-82	-88
-88	-98
-82	-112
-76	-126
-74	-138
-64	-134
-62	-136
-66	-136
-62	-130
-60	-136
-62	-138
-64	-134
-66	-118
-64	-102
-72	-86
-76	-70
-78	-70
-78	-64
-84	-64
-86	-64
-90	-76
-88	-88
-86	-102
-84	-116
-78	-124
-76	-128
-70	-128
-72	-128
-66	-130
-64	-130
-68	-130
-62	-124
-70	-120
-68	-100
-68	-84
-76	-74
-80	-72
-84	-72
-96	-72
-88	-76
-94	-86
-92	-86
-90	-100
-86	-112
-84	-118
-78	-130
-70	-138
-72	-134
-74	-132
-68	-134
-68	-130
-64	-124
-68	-116
-68	-98
-70	-88
-78	-86
-84	-80
-88	-74
-86	-70
-86	-74
-82	-74
-84	-82
-88	-96
-86	-106
-86	-114
-78	-122
-74	-124
-80	-128
-74	-128
-74	-128
-72	-126
-68	-124
-68	-114
-70	-98
-78	-84
-78	-74
-82	-70
-88	-70
-92	-76
-86	-78
-84	-84
-90	-92
-90	-100
-90	-110
-88	-120
-84	-126
-84	-134
-80	-134
-74	-134
-76	-134
-74	-130
-70	-128
-64	-116
-68	-102
-74	-88
-78	-80
-86	-72
-86	-66
-94	-68
-94	-72
-92	-86
-92	-102
-88	-110
-86	-118
-82	-120
-80	-130
-82	-132
-78	-134
-72	-136
-62	-138
-68	-140
-66	-138
-62	-122
-66	-110
-68	-98
-76	-84
-80	-78
-86	-72
-84	-70
-86	-74
-86	-84
-88	-96
-86	-112
-82	-126
-80	-136
-70	-142
-72	-136
-68	-136
-68	-134
-70	-128
-64	-130
-70	-128
-66	-114
-68	-102
-70	-86
-74	-78
-78	-68
-86	-64
-88	-68
-92	-78
-90	-86
-94	-94
-92	-104
-84	-116
-80	-124
-76	-130
-76	-130
-72	-134
-72	-136
-74	-134
-74	-130
-68	-132
-66	-118
-74	-106
-72	-96
-82	-84
-80	-70
-86	-64
-92	-64
-98	-70
-102	-78
-100	-92
-98	-104
-90	-114
-84	-126
-76	-126
-74	-128
-74	-128
-74	-126
-70	-128
-64	-132
-62	-128
-60	-124
-64	-104
-68	-94
-74	-84
-78	-72
-78	-68
-88	-66
-86	-72
-82	-82
-84	-94
-78	-108
-76	-116
-76	-124
-76	-128
-74	-130
-68	-136
-66	-132
-70	-128
-64	-130
-64	-118
-66	-106
-70	-96
-78	-86
-78	-82
-84	-74
-88	-72
-88	-70
-92	-74
-92	-86
-96	-96
-98	-114
-90	-126
-82	-134
-74	-140
-72	-140
-66	-142
-70	-140
-68	-142
-66	-134
-68	-132
-68	-122
-74	-108
-80	-98
-80	-86
-86	-78
-88	-72
-92	-70
-96	-78
-94	-86
-94	-104
-96	-114
-90	-124
-82	-130
-80	-140
-80	-142
-76	-142
-84	-140
-78	-144
-76	-150
-74	-140
-72	-128
-74	-112
-76	-96
-84	-90
-86	-76
-88	-72
-92	-76
-92	-84
-92	-90
-94	-100
-92	-116
-88	-122
-82	-134
-84	-140
-76	-142
-72	-142
-68	-138
-68	-140
-70	-142
-68	-130
-68	-122
-72	-110
-76	-92
-80	-88
-84	-84
-84	-78
-92	-70
-92	-72
-92	-78
-90	-82
-92	-102
-90	-116
-86	-122
-82	-132
-78	-136
-78	-138
-76	-138
-76	-134
-70	-138
-70	-130
-70	-116
-74	-100
-76	-90
-80	-78
-90	-72
-86	-58
-88	-68
-92	-72
-92	-80
-90	-96
-90	-110
-86	-116
-98	-130
-74	-130
-74	-136
-70	-138
-70	-140
-62	-134
-66	-132
-62	-130
-64	-114
-68	-100
-72	-84
-80	-70
-86	-60
-84	-60
-88	-60
-92	-72
-90	-88
-90	-102
-92	-106
-82	-114
-76	-118
-74	-124
-74	-128
-72	-128
-72	-130
-70	-128
-68	-128
-62	-128
-64	-120
-66	-108
-72	-92
-76	-80
-80	-76
-84	-66
-84	-68
-88	-80
-88	-86
-84	-96
-84	-108
-88	-130
-74	-140
-70	-142
-70	-134
-70	-126
-60	-124
-66	-118
-68	-122
-64	-116
-66	-106
-70	-96
-70	-84
-74	-74
-82	-64
-88	-70
-90	-68
-92	-74
-96	-84
-94	-94
-88	-108
-84	-116
-80	-124
-80	-126
-74	-126
-74	-128
-72	-128
-70	-130
-68	-126
-64	-122
-66	-108
-64	-96
-64	-86
-72	-80
-76	-76
-80	-70
-84	-68
-86	-74
-84	-80
-82	-88
-78	-102
-72	-112
-70	-120
-64	-122
-62	-126
-62	-130
-58	-132
-54	-130
-46	-128
-52	-118
-54	-104
-54	-86
-58	-70
-62	-68
-70	-56
-74	-52
-76	-58
-80	-68
-82	-86
-76	-98
-70	-112
-64	-120
-60	-118
-60	-124
-52	-126
-54	-126
-52	-126
-48	-124
-50	-126
-48	-120
-52	-110
-52	-92
-54	-82
-60	-78
-66	-64
-74	-64
-80	-64
-76	-74
-74	-84
-74	-92
-70	-106
-68	-108
-68	-118
-64	-122
-60	-124
-58	-126
-54	-126
-54	-126
-54	-122
-50	-116
-54	-100
-56	-92
-58	-76
-58	-70
-60	-66
-68	-58
-68	-54
-72	-62
-76	-70
-76	-86
-72	-96
-70	-114
-62	-122
-68	-126
-64	-128
-56	-130
-52	-128
-50	-130
-48	-128
-40	-116
-48	-104
-50	-90
-54	-78
-62	-66
-66	-58
-70	-56
-72	-58
-72	-60
-72	-70
-66	-90
-68	-98
-66	-108
-60	-114
-56	-116
-50	-124
-52	-124
-44	-126
-44	-124
-40	-126
-42	-118
-44	-104
-40	-90
-46	-74
-56	-66
-62	-60
-70	-50
-70	-54
-78	-58
-74	-76
-74	-88
-70	-102
-60	-108
-62	-112
-62	-116
-58	-116
-60	-116
-56	-118
-56	-120
-54	-120
-56	-120
-58	-104
-56	-92
-66	-76
-68	-64
-74	-62
-82	-62
-88	-62
-82	-74
-80	-80
-84	-92
-80	-100
-78	-110
-72	-114
-72	-116
-72	-120
-64	-122
-64	-124
-66	-120
-64	-122
-62	-116
-60	-100
-64	-92
-66	-78
-74	-68
-76	-62
-80	-56
-84	-58
-88	-66
-86	-76
-86	-90
-82	-108
-80	-114
-76	-124
-66	-128
-68	-122
-66	-126
-64	-126
-64	-128
-64	-128
-68	-122
-62	-106
-68	-90
-76	-84
-74	-72
-86	-70
-88	-60
-92	-58
-96	-66
-92	-80
-96	-98
-88	-108
-86	-112
-84	-116
-86	-122
-80	-124
-78	-134
-78	-126
-72	-126
-70	-134
-70	-124
-74	-118
-70	-102
-76	-84
-74	-86
-88	-74
-82	-68
-88	-70
-90	-82
-92	-92
-98	-104
-92	-116
-88	-122
-86	-124
-78	-132
-76	-134
-76	-140
-72	-138
-68	-136
-74	-136
-74	-124
-76	-114
-76	-106
-78	-88
-82	-80
-88	-70
-88	-62
-94	-66
-96	-74
-96	-84
-94	-94
-90	-118
-82	-118
-82	-130
-78	-136
-78	-138
-74	-134
-70	-128
-70	-132
-70	-128
-68	-122
-66	-114
-72	-100
-72	-90
-78	-80
-86	-78
-80	-80
-88	-78
-92	-84
-90	-90
-88	-96
-86	-112
-82	-122
-74	-130
-70	-134
-70	-136
-68	-136
-70	-142
-64	-138
-60	-136
-56	-126
-58	-104
-68	-96
-70	-78
-78	-70
-86	-68
-90	-66
-94	-62
-90	-68
-92	-76
-90	-94
-88	-104
-82	-118
-80	-122
-74	-128
-72	-126
-72	-132
-68	-126
-66	-126
-66	-120
-64	-120
-66	-108
-68	-96
-74	-84
-76	-74
-80	-70
-84	-60
-92	-62
-90	-74
-88	-90
-84	-104
-84	-112
-84	-126
-72	-124
-76	-126
-72	-126
-70	-128
-66	-134
-64	-136
-58	-136
-58	-126
-62	-108
-64	-92
-72	-80
-76	-68
-76	-68
-82	-60
-80	-70
-84	-72
-86	-76
-84	-94
-80	-102
-76	-112
-74	-118
-70	-122
-66	-128
-70	-126
-66	-122
-64	-124
-62	-130
-56	-126
-62	-112
-58	-94
-62	-86
-64	-74
-76	-66
-84	-64
-84	-66
-94	-74
-86	-80
-80	-94
-74	-108
-74	-118
-68	-128
-68	-134
-66	-134
-66	-128
-62	-128
-60	-128
-58	-132
-58	-122
-58	-108
-60	-98
-64	-84
-60	-72
-72	-66
-74	-64
-78	-66
-86	-74
-90	-88
-84	-102
-76	-122
-72	-134
-66	-138
-66	-136
-62	-136
-58	-146
-64	-138
-62	-132
-62	-128
-62	-122
-60	-112
-66	-100
-66	-90
-64	-78
-72	-72
-72	-72
-72	-78
-78	-80
-80	-94
-82	-104
-76	-118
-70	-126
-64	-130
-60	-134
-58	-138
-60	-140
-60	-138
-54	-138
-54	-132
-50	-124
-56	-108
-60	-92
-64	-82
-64	-68
-70	-68
-74	-60
-78	-68
-74	-76
-82	-82
-80	-92
-78	-102
-74	-108
-70	-118
-64	-120
-64	-122
-60	-126
-58	-120
-60	-124
-54	-126
-56	-118
-56	-104
-54	-92
-64	-88
-68	-76
-72	-78
-74	-68
-78	-70
-86	-76
-86	-82
-84	-96
-78	-110
-74	-116
-72	-120
-60	-128
-68	-126
-60	-128
-60	-126
-58	-128
-60	-128
-58	-124
-60	-110
-56	-98
-68	-84
-66	-78
-76	-72
-80	-70
-82	-74
-90	-78
-86	-84
-84	-100
-86	-108
-78	-112
-70	-120
-68	-122
-66	-126
-64	-134
-64	-130
-62	-130
-58	-128
-54	-126
-58	-108
-60	-96
-56	-84
-70	-76
-72	-68
-72	-74
-80	-74
-78	-82
-74	-90
-74	-104
-72	-118
-62	-128
-60	-134
-58	-132
-56	-132
-60	-128
-58	-132
-52	-136
-54	-134
-54	-124
-60	-108
-64	-92
-66	-80
-74	-72
-76	-64
-76	-62
-78	-68
-84	-74
-78	-86
-78	-98
-72	-108
-72	-118
-70	-124
-62	-124
-60	-130
-60	-126
-56	-128
-50	-128
-56	-126
-46	-118
-50	-106
-56	-92
-58	-86
-64	-76
-68	-68
-72	-70
-74	-76
-72	-86
-72	-92
-68	-98
-68	-106
-66	-118
-62	-122
-64	-134
-60	-136
-58	-136
-56	-136
-52	-136
-50	-134
-56	-136
-52	-116
-52	-104
-56	-86
-58	-84
-66	-74
-68	-74
-76	-76
-76	-86
-76	-92
-76	-110
-72	-122
-64	-134
-64	-142
-58	-134
-56	-140
-50	-136
-56	-136
-54	-136
-50	-134
-50	-126
-52	-112
-58	-102
-58	-90
-70	-88
-68	-80
-72	-76
-72	-80
-76	-92
-74	-98
-70	-114
-64	-128
-62	-136
-60	-140
-56	-142
-58	-140
-56	-144
-52	-140
-52	-138
-54	-132
-52	-126
-56	-114
-60	-104
-62	-90
-68	-90
-68	-84
-74	-82
-78	-90
-78	-92
-78	-104
-76	-114
-72	-120
-70	-128
-64	-138
-58	-142
-56	-138
-56	-136
-54	-132
-58	-134
-54	-140
-52	-136
-54	-120
-56	-116
-58	-106
-64	-92
-62	-76
-70	-72
-72	-70
-80	-78
-78	-86
-78	-104
-74	-118
-68	-126
-66	-132
-60	-142
-62	-136
-54	-136
-54	-138
-54	-140
-50	-144
-52	-134
-50	-124
-52	-104
-56	-94
-60	-86
-66	-80
-72	-84
-74	-90
-70	-94
-74	-104
-72	-110
-68	-122
-68	-136
-62	-140
-56	-148
-54	-154
-50	-152
-50	-148
-50	-140
-50	-132
-44	-128
-46	-114
-48	-102
-52	-92
-56	-76
-62	-74
-66	-78
-66	-86
-70	-88
-74	-88
-68	-102
-62	-110
-66	-124
-64	-128
-60	-136
-58	-136
-56	-136
-56	-134
-56	-136
-50	-134
-54	-128
-54	-116
-58	-102
-62	-88
-64	-80
-70	-74
-70	-74
-78	-76
-82	-90
-80	-98
-80	-112
-72	-122
-70	-128
-66	-134
-64	-136
-60	-134
-60	-140
-58	-138
-56	-140
-54	-134
-56	-130
-56	-120
-54	-106
-64	-88
-64	-76
-70	-72
-76	-66
-82	-74
-80	-84
-78	-100
-72	-116
-72	-130
-72	-138
-64	-134
-64	-134
-56	-132
-58	-126
-58	-134
-50	-134
-54	-130
-52	-124
-56	-110
-60	-96
-58	-90
-66	-84
-66	-72
-74	-72
-74	-82
-78	-82
-80	-100
-74	-108
-72	-122
-66	-130
-64	-134
-68	-138
-60	-138
-62	-136
-58	-142
-60	-144
-58	-134
-54	-130
-56	-110
-60	-94
-66	-84
-70	-76
-74	-68
-76	-66
-80	-80
-86	-82
-78	-92
-80	-112
-74	-118
-68	-124
-66	-138
-58	-138
-60	-136
-66	-136
-64	-132
-60	-128
-56	-132
-52	-128
-56	-108
-56	-92
-68	-84
-72	-74
-70	-72
-76	-72
-84	-70
-80	-84
-82	-96
-82	-112
-76	-124
-72	-128
-66	-134
-68	-134
-60	-138
-58	-138
-54	-140
-58	-136
-54	-136
-54	-124
-56	-114
-56	-100
-64	-88
-68	-82
-76	-78
-80	-78
-82	-78
-82	-84
-80	-96
-78	-104
-78	-114
-74	-120
-64	-128
-64	-130
-58	-138
-60	-130
-58	-130
-60	-130
-56	-128
-54	-116
-56	-108
-62	-100
-66	-92
-64	-84
-66	-72
-68	-62
-74	-70
-74	-76
-80	-86
-76	-104
-72	-114
-70	-122
-68	-128
-68	-128
-70	-132
-64	-132
-60	-132
-58	-134
-58	-128
-60	-122
-60	-108
-66	-94
-62	-78
-74	-74
-70	-62
-74	-64
-78	-72
-78	-80
-80	-90
-80	-106
-78	-120
-70	-128
-68	-130
-64	-138
-60	-142
-62	-138
-66	-134
-62	-132
-54	-126
-58	-120
-58	-106
-58	-94
-64	-86
-68	-80
-74	-78
-74	-76
-78	-76
-76	-80
-74	-86
-78	-98
-74	-112
-70	-120
-70	-126
-64	-128
-68	-132
-66	-134
-68	-130
-58	-132
-54	-136
-56	-132
-54	-120
-58	-102
-60	-88
-64	-78
-74	-68
-74	-62
-82	-72
-78	-76
-82	-86
-78	-102
-76	-110
-74	-120
-68	-124
-64	-132
-64	-132
-68	-136
-58	-128
-58	-134
-54	-130
-60	-116
-62	-104
-66	-96
-70	-90
-72	-86
-80	-86
-86	-80
-84	-74
-82	-86
-80	-92
-82	-106
-80	-114
-72	-130
-70	-138
-68	-140
-68	-144
-68	-144
-68	-142
-66	-140
-64	-138
-58	-126
-68	-108
-72	-96
-70	-88
-72	-78
-78	-70
-80	-68
-86	-76
-84	-80
-82	-88
-82	-102
-78	-114
-76	-116
-66	-128
-74	-130
-68	-132
-74	-130
-64	-128
-66	-132
-60	-126
-64	-118
-64	-102
-68	-94
-72	-80
-74	-70
-82	-62
-90	-62
-88	-68
-90	-74
-90	-84
-88	-98
-86	-110
-76	-116
-76	-128
-76	-130
-72	-132
-74	-130
-70	-134
-62	-130
-62	-126
-60	-118
-66	-106
-68	-92
-68	-80
-76	-72
-82	-62
-84	-58
-92	-62
-92	-70
-92	-86
-88	-102
-82	-112
-76	-124
-74	-128
-68	-124
-68	-132
-74	-124
-68	-124
-66	-124
-68	-118
-60	-108
-68	-96
-72	-84
-72	-80
-84	-64
-84	-64
-88	-60
-92	-64
-90	-70
-90	-82
-84	-94
-78	-108
-78	-118
-70	-126
-70	-128
-68	-132
-70	-126
-66	-128
-64	-124
-64	-122
-68	-114
-66	-108
-66	-94
-72	-84
-78	-72
-82	-58
-84	-58
-94	-60
-94	-70
-88	-84
-84	-90
-80	-108
-74	-114
-72	-114
-62	-120
-68	-124
-68	-132
-66	-128
-64	-130
-58	-128
-52	-118
-60	-96
-62	-84
-70	-70
-74	-64
-78	-56
-84	-56
-84	-62
-80	-76
-84	-90
-82	-108
-80	-112
-74	-120
-74	-126
-70	-130
-68	-128
-70	-126
-66	-126
-68	-128
-68	-126
-64	-120
-64	-108
-64	-96
-70	-86
-72	-76
-74	-62
-78	-68
-82	-72
-82	-80
-76	-88
-78	-100
-78	-108
-74	-114
-66	-118
-70	-126
-62	-122
-62	-122
-60	-126
-58	-122
-54	-124
-52	-110
-54	-100
-58	-90
-66	-76
-74	-66
-80	-62
-84	-58
-84	-68
-76	-78
-78	-86
-72	-102
-74	-112
-66	-116
-66	-124
-60	-140
-64	-144
-56	-138
-58	-132
-54	-126
-52	-114
-52	-104
-56	-90
-62	-86
-70	-86
-70	-76
-74	-62
-76	-58
-78	-62
-80	-76
-80	-84
-78	-104
-70	-114
-68	-120
-60	-124
-58	-132
-60	-128
-54	-130
-56	-126
-46	-130
-50	-122
-52	-112
-48	-102
-56	-84
-56	-80
-62	-68
-70	-66
-72	-68
-72	-78
-74	-88
-74	-102
-66	-122
-62	-134
-58	-132
-54	-134
-50	-128
-48	-118
-46	-122
-48	-122
-44	-122
-42	-114
-40	-106
-44	-94
-44	-82
-48	-68
-56	-62
-62	-56
-60	-54
-70	-58
-72	-74
-70	-84
-68	-94
-64	-110
-58	-114
-56	-116
-52	-118
-46	-120
-46	-124
-46	-122
-40	-120
-42	-114
-38	-104
-38	-90
-42	-76
-46	-68
-48	-60
-54	-56
-62	-60
-64	-62
-64	-72
-62	-86
-64	-96
-56	-108
-46	-114
-44	-116
-44	-118
-42	-118
-40	-128
-36	-126
-34	-126
-32	-116
-34	-100
-36	-82
-38	-68
-42	-58
-46	-52
-56	-48
-56	-54
-62	-62
-62	-70
-62	-86
-56	-100
-52	-112
-46	-116
-46	-118
-46	-118
-40	-118
-42	-114
-44	-112
-42	-116
-42	-116
-38	-104
-42	-96
-44	-82
-54	-70
-48	-70
-58	-62
-66	-62
-66	-62
-64	-76
-66	-80
-62	-94
-60	-106
-50	-110
-56	-116
-48	-124
-46	-120
-46	-122
-48	-116
-46	-118
-44	-110
-46	-102
-44	-90
-40	-80
-50	-72
-54	-64
-58	-58
-62	-62
-66	-68
-62	-76
-62	-84
-60	-100
-56	-114
-56	-112
-50	-118
-48	-124
-46	-126
-44	-128
-38	-126
-42	-122
-38	-120
-36	-106
-40	-94
-46	-80
-46	-78
-52	-72
-62	-70
-64	-72
-64	-80
-68	-82
-62	-88
-58	-104
-58	-108
-52	-114
-50	-120
-48	-120
-44	-122
-42	-118
-46	-124
-42	-124
-38	-112
-36	-104
-32	-94
-38	-78
-44	-72
-46	-62
-56	-50
-56	-56
-60	-60
-62	-70
-60	-76
-56	-92
-52	-96
-52	-110
-42	-116
-46	-116
-36	-120
-36	-116
-38	-116
-34	-120
-36	-114
-32	-100
-36	-88
-42	-74
-48	-72
-54	-60
-58	-58
-62	-54
-66	-58
-68	-74
-64	-82
-64	-92
-54	-106
-50	-112
-42	-116
-42	-118
-40	-122
-42	-126
-36	-128
-38	-122
-36	-110
-40	-96
-42	-78
-50	-68
-50	-56
-54	-46
-58	-50
-60	-48
-58	-56
-56	-64
-62	-74
-56	-88
-50	-98
-50	-110
-40	-114
-42	-108
-38	-114
-42	-114
-38	-110
-36	-114
-32	-106
-38	-90
-40	-80
-48	-64
-46	-54
-54	-48
-56	-44
-60	-46
-60	-50
-60	-64
-62	-72
-56	-88
-52	-100
-48	-114
-48	-116
-44	-120
-42	-120
-40	-118
-34	-116
-34	-116
-30	-112
-32	-100
-30	-86
-34	-80
-40	-66
-42	-58
-54	-52
-50	-56
-54	-60
-52	-70
-52	-86
-50	-92
-48	-106
-42	-106
-54	-120
-38	-118
-38	-118
-38	-120
-30	-122
-34	-118
-32	-108
-32	-100
-36	-88
-36	-78
-44	-70
-50	-60
-56	-56
-54	-60
-56	-68
-58	-80
-46	-88
-50	-102
-46	-108
-40	-114
-40	-118
-38	-126
-38	-122
-34	-122
-32	-120
-30	-118
-26	-114
-24	-106
-30	-94
-34	-82
-38	-74
-40	-66
-48	-60
-48	-60
-50	-70
-50	-84
-52	-102
-46	-110
-36	-118
-34	-122
-34	-132
-30	-130
-30	-132
-28	-126
-20	-128
-22	-120
-26	-112
-24	-98
-30	-88
-28	-74
-34	-64
-42	-52
-54	-56
-56	-52
-52	-58
-54	-72
-50	-84
-50	-100
-42	-114
-40	-120
-36	-128
-34	-124
-30	-124
-32	-122
-30	-128
-26	-124
-26	-116
-26	-102
-30	-92
-34	-76
-40	-62
-42	-56
-50	-52
-50	-52
-52	-60
-56	-72
-56	-92
-50	-108
-44	-118
-44	-122
-36	-124
-38	-122
-38	-118
-36	-116
-40	-122
-38	-118
-34	-112
-32	-106
-34	-88
-36	-80
-46	-68
-48	-60
-54	-62
-56	-64
-58	-70
-60	-76
-54	-96
-54	-104
-50	-114
-48	-120
-38	-138
-32	-132
-34	-130
-38	-130
-38	-126
-42	-126
-36	-120
-38	-106
-38	-96
-44	-76
-48	-66
-52	-60
-50	-56
-56	-58
-58	-70
-58	-78
-56	-90
-46	-100
-46	-118
-42	-126
-38	-128
-32	-130
-28	-124
-28	-120
-30	-120
-26	-120
-26	-112
-30	-96
-30	-86
-30	-74
-38	-64
-42	-58
-42	-60
-52	-58
-48	-66
-48	-74
-50	-84
-48	-96
-40	-102
-40	-114
-36	-116
-34	-116
-30	-118
-30	-114
-30	-114
-24	-112
-22	-108
-26	-94
-28	-82
-32	-70
-42	-64
-44	-58
-48	-56
-52	-56
-58	-62
-54	-76
-48	-86
-48	-102
-46	-106
-40	-108
-42	-118
-30	-112
-36	-120
-32	-116
-26	-124
-26	-120
-26	-108
-34	-98
-38	-78
-46	-72
-50	-64
-52	-56
-62	-56
-64	-58
-62	-68
-64	-74
-62	-90
-54	-106
-52	-106
-40	-120
-38	-126
-40	-124
-34	-124
-32	-132
-32	-126
-32	-128
-32	-118
-26	-102
-34	-92
-34	-80
-32	-68
-40	-62
-46	-62
-50	-64
-48	-74
-50	-94
-40	-100
-38	-112
-32	-112
-30	-108
-32	-118
-32	-126
-28	-130
-28	-126
-24	-118
-26	-112
-24	-108
-26	-100
-32	-86
-34	-76
-36	-70
-40	-64
-44	-60
-50	-64
-52	-72
-52	-80
-48	-88
-48	-94
-46	-104
-44	-116
-40	-120
-40	-126
-34	-126
-34	-126
-32	-126
-40	-122
-34	-114
-34	-106
-36	-88
-40	-76
-44	-70
-46	-56
-44	-56
-52	-60
-54	-70
-52	-76
-56	-96
-50	-108
-44	-110
-38	-124
-34	-124
-36	-126
-32	-128
-30	-126
-30	-124
-26	-126
-24	-118
-26	-110
-30	-96
-28	-84
-36	-74
-42	-66
-44	-62
-50	-60
-46	-70
-48	-82
-48	-100
-42	-108
-38	-126
-30	-124
-30	-124
-30	-124
-26	-124
-24	-124
-24	-122
-18	-122
-20	-118
-22	-98
-22	-86
-26	-76
-30	-72
-36	-66
-36	-60
-38	-58
-42	-60
-44	-74
-42	-88
-44	-102
-34	-110
-30	-116
-24	-116
-26	-124
-22	-124
-18	-124
-18	-118
-20	-122
-14	-112
-18	-98
-16	-80
-28	-68
-32	-62
-36	-58
-44	-56
-44	-62
-38	-74
-40	-80
-40	-96
-26	-112
-28	-116
-26	-114
-26	-118
-24	-114
-28	-120
-26	-116
-22	-118
-24	-118
-18	-106
-22	-92
-18	-84
-24	-70
-26	-58
-34	-52
-38	-52
-42	-52
-42	-66
-40	-72
-40	-82
-40	-96
-26	-100
-28	-108
-24	-108
-20	-112
-18	-114
-16	-112
-18	-110
-16	-110
-12	-112
-10	-96
-14	-80
-22	-72
-28	-62
-24	-56
-36	-52
-38	-58
-42	-72
-38	-86
-30	-92
-24	-96
-24	-98
-28	-104
-26	-110
-26	-108
-24	-114
-18	-108
-18	-112
-14	-110
-10	-104
-14	-90
-16	-76
-22	-60
-24	-54
-32	-48
-34	-42
-40	-48
-36	-52
-38	-68
-32	-80
-30	-90
-26	-102
-20	-102
-20	-112
-18	-118
-14	-116
-14	-122
-10	-114
-6	-110
-8	-98
-8	-84
-12	-70
-18	-60
-26	-58
-26	-50
-30	-50
-36	-54
-34	-62
-36	-70
-34	-84
-32	-98
-26	-108
-26	-112
-24	-122
-24	-122
-14	-122
-12	-118
-12	-118
-12	-116
-6	-108
-6	-90
-10	-86
-12	-70
-18	-58
-22	-56
-28	-50
-34	-54
-34	-66
-34	-68
-32	-84
-32	-94
-28	-102
-20	-112
-18	-114
-18	-110
-16	-112
-16	-112
-10	-118
-6	-120
-12	-108
-10	-94
-14	-82
-14	-76
-26	-58
-28	-54
-34	-54
-40	-56
-40	-70
-34	-78
-38	-92
-30	-106
-30	-110
-28	-114
-28	-118
-26	-118
-16	-120
-12	-118
-8	-120
-6	-116
-4	-106
-10	-94
-12	-82
-14	-64
-18	-60
-24	-48
-30	-48
-30	-52
-34	-58
-28	-76
-30	-86
-24	-100
-16	-110
-16	-118
-12	-110
-12	-112
-10	-110
-10	-108
-2	-112
0	-106
2	-102
-2	-86
-10	-74
-12	-56
-16	-48
-22	-44
-22	-52
-20	-52
-24	-64
-24	-72
-26	-84
-24	-96
-22	-102
-20	-108
-20	-108
-22	-106
-18	-102
-16	-108
-16	-106
-14	-104
-14	-96
-14	-80
-16	-64
-20	-60
-22	-52
-26	-52
-32	-48
-32	-56
-34	-54
-40	-64
-36	-74
-28	-86
-26	-98
-18	-112
-16	-112
-12	-112
-10	-116
-6	-118
-6	-124
-8	-120
-6	-108
-4	-88
-8	-64
-14	-52
-18	-40
-22	-40
-28	-42
-28	-44
-30	-50
-28	-68
-26	-80
-26	-98
-22	-102
-22	-110
-22	-116
-20	-116
-18	-114
-14	-114
-10	-116
-6	-108
-6	-94
-8	-82
-12	-70
-18	-62
-24	-60
-28	-54
-30	-50
-38	-50
-42	-58
-42	-72
-40	-86
-40	-96
-38	-102
-34	-110
-28	-106
-24	-114
-18	-110
-16	-110
-10	-110
-6	-106
-12	-90
-12	-84
-20	-70
-30	-56
-34	-52
-44	-42
-44	-38
-46	-44
-44	-50
-44	-66
-38	-80
-34	-92
-22	-102
-14	-108
-12	-112
-14	-110
-12	-106
-18	-92
-20	-88
-8	-78
6	-68
8	-66
2	-64
-10	-62
-32	-56
-56	-52
-86	-44
-118	-36
-144	-42
-168	-56
-166	-84
-160	-102
-146	-108
-128	-114
-114	-116
-98	-114
-78	-112
-58	-114
-46	-114
-30	-110
-14	-98
0	-80
10	-72
12	-64
10	-48
-8	-38
-36	-28
-52	-20
-64	-16
-74	-36
-62	-66
-34	-92
-4	-112
10	-112
20	-124
22	-130
20	-130
34	-128
34	-124
40	-110
30	-98
26	-74
16	-64
8	-54
4	-54
-6	-56
-8	-58
-20	-54
-20	-60
-20	-68
-10	-76
-8	-94
-4	-106
4	-114
8	-124
16	-126
12	-120
10	-112
2	-104
-4	-98
-10	-88
-18	-76
-22	-60
-28	-48
-34	-44
-42	-44
-42	-42
-44	-52
-44	-60
-48	-68
-52	-80
-56	-86
-56	-100
-44	-98
-40	-104
-32	-108
-32	-112
-36	-112
-38	-112
-44	-102
-44	-90
-36	-78
-20	-64
-10	-56
0	-50
-4	-44
-22	-44
-46	-46
-82	-50
-122	-60
-164	-70
-198	-74
-230	-68
-258	-68
-284	-70
-276	-78
-262	-76
-268	-82
-300	-92
-346	-100
-404	-100
-418	-86
-370	-70
-234	-66
-52	-60
96	-60
176	-62
208	-64
206	-70
172	-72
126	-68
82	-60
46	-50
20	-50
16	-66
48	-92
82	-108
98	-110
104	-110
98	-104
92	-96
80	-80
70	-66
64	-50
48	-40
40	-42
32	-50
32	-56
26	-56
22	-62
20	-70
18	-84
16	-86
12	-88
8	-92
4	-96
-2	-102
-12	-102
-20	-98
-24	-90
-32	-82
-60	-70
-128	-64
-224	-42
-318	-24
-408	12
-432	16
-300	0
-92	-26
66	-48
132	-66
146	-78
128	-82
100	-88
82	-84
52	-86
26	-92
-6	-98
-52	-86
-94	-66
-114	-46
-106	-28
-70	-22
-22	-22
12	-16
18	-12
6	-14
-32	-16
-84	-22
-130	-32
-152	-36
-158	-40
-140	-56
-90	-74
-46	-84
-32	-88
-44	-88
-90	-88
-144	-92
-202	-90
-244	-80
-244	-70
-176	-58
-66	-50
40	-48
110	-44
144	-38
146	-30
132	-28
118	-30
94	-38
80	-48
72	-60
64	-72
56	-80
46	-84
38	-86
24	-90
14	-104
-2	-106
-26	-96
-56	-88
-80	-62
-92	-50
-94	-42
-66	-44
-20	-38
4	-36
16	-30
14	-26
10	-30
8	-36
6	-44
6	-58
2	-68
0	-78
-4	-88
-6	-106
10	-118
22	-124
28	-124
34	-112
36	-100
28	-90
22	-74
8	-62
-8	-46
-22	-34
-28	-26
-46	-24
-56	-20
-72	-32
-84	-46
-76	-58
-72	-72
-72	-66
-74	-74
-72	-88
-72	-100
-72	-116
-78	-124
-92	-128
-76	-126
-48	-124
-14	-114
30	-98
54	-76
52	-52
24	-32
-4	-24
-30	-22
-48	-32
-58	-40
-58	-52
-70	-56
-82	-72
-110	-84
-134	-94
-124	-108
-104	-128
-42	-152
32	-160
98	-152
130	-140
136	-116
120	-86
94	-54
68	-30
34	-8
6	0
-18	2
-30	-6
-24	-20
-26	-30
-18	-38
-10	-48
0	-70
4	-92
2	-110
-6	-128
-22	-120
-38	-120
-64	-110
-66	-110
-58	-94
-54	-70
-52	-42
-54	-22
-56	-4
-46	2
-32	-6
-8	-6
14	-10
34	-20
38	-38
48	-66
42	-82
40	-102
38	-122
34	-140
24	-148
20	-150
8	-144
10	-128
12	-106
4	-84
-12	-60
-32	-36
-64	-12
-76	2
-74	4
-50	-4
-24	-14
-6	-26
-4	-40
-20	-58
-46	-72
-68	-92
-62	-118
-38	-142
-18	-152
-12	-144
-44	-120
-108	-92
-166	-66
-200	-44
-190	-20
-128	-8
-26	4
70	10
112	12
114	6
100	-6
80	-22
58	-32
36	-58
28	-74
26	-88
26	-110
38	-132
50	-142
66	-138
76	-126
68	-110
54	-86
34	-56
-8	-22
-50	14
-86	36
-108	44
-100	50
-86	44
-72	22
-36	-18
20	-46
74	-64
84	-80
98	-98
94	-120
90	-144
88	-158
84	-158
76	-146
66	-118
58	-96
54	-66
48	-34
40	2
26	20
10	26
2	30
-2	20
0	2
0	-20
4	-42
10	-58
18	-82
24	-102
8	-120
-6	-134
-30	-126
-54	-116
-66	-102
-68	-84
-56	-70
-34	-42
-6	-18
26	-4
48	8
76	6
86	4
84	-4
86	-12
72	-22
52	-32
38	-56
32	-80
30	-100
32	-122
40	-142
42	-148
48	-148
46	-140
42	-116
36	-90
30	-58
24	-26
14	8
10	26
4	38
-4	28
0	16
0	10
-14	-8
-34	-20
-52	-36
-64	-54
-74	-76
-80	-106
-80	-130
-58	-142
-20	-140
34	-134
94	-120
132	-96
146	-64
124	-30
100	-2
62	26
38	36
18	24
10	16
14	-4
20	-28
24	-40
6	-46
-20	-58
-42	-66
-66	-86
-58	-112
-10	-140
52	-154
98	-156
114	-136
106	-108
84	-72
64	-38
40	-14
20	8
-22	22
-72	24
-126	20
-176	6
-174	-12
-104	-30
8	-64
84	-86
108	-100
100	-118
88	-128
72	-140
54	-138
34	-124
6	-96
-22	-70
-4	-52
38	-34
76	-14
90	0
86	12
76	4
64	-2
48	-18
46	-36
44	-52
52	-64
58	-78
56	-98
66	-118
76	-146
86	-158
86	-162
80	-156
70	-132
54	-102
46	-58
42	-26
36	6
32	22
30	32
24	32
18	24
24	12
26	-6
24	-28
26	-54
26	-74
22	-96
6	-126
-12	-146
-36	-152
-70	-148
-94	-130
-82	-108
-62	-86
-12	-56
40	-24
78	6
94	30
102	36
98	32
90	16
82	6
64	-14
56	-26
52	-50
56	-72
54	-96
64	-124
82	-140
92	-152
104	-146
92	-128
76	-96
40	-60
14	-22
-12	12
-14	18
16	10
54	2
78	-10
80	-14
74	-26
64	-40
58	-44
52	-52
56	-74
60	-102
68	-126
80	-150
82	-154
88	-148
86	-134
76	-114
72	-88
64	-52
56	-18
46	10
34	26
28	36
20	28
26	14
28	2
32	-12
40	-28
34	-46
44	-70
52	-90
58	-120
62	-142
60	-154
60	-144
54	-130
40	-110
24	-84
12	-48
4	-10
-12	20
-20	34
-30	44
-28	30
-18	8
22	-18
66	-36
96	-52
98	-64
72	-80
20	-96
-42	-120
-86	-144
-94	-152
-32	-156
62	-144
144	-120
182	-94
176	-66
150	-24
114	2
68	18
20	22
-20	18
-38	4
-26	-8
-2	-26
34	-44
70	-66
88	-82
94	-102
92	-128
96	-154
94	-160
94	-164
92	-142
82	-112
78	-84
86	-52
88	-22
78	2
50	22
18	32
-10	32
-22	28
-16	10
12	-16
40	-36
66	-60
72	-80
60	-96
46	-118
38	-132
22	-136
24	-152
48	-148
78	-124
92	-80
88	-38
80	-6
64	12
36	22
0	22
-34	18
-64	4
-88	-6
-84	-20
-62	-36
-24	-50
26	-80
78	-108
122	-140
148	-156
168	-166
176	-162
174	-148
160	-126
146	-96
126	-54
92	-12
50	16
14	30
0	42
-4	30
0	12
-4	0
-20	-14
-54	-30
-50	-50
-18	-78
12	-114
60	-138
98	-162
126	-168
158	-160
172	-144
172	-116
156	-88
132	-58
106	-22
90	2
64	26
44	26
40	18
30	6
24	-6
28	-24
10	-42
-14	-60
-58	-74
-104	-94
-122	-120
-74	-154
28	-170
134	-168
192	-162
218	-136
204	-102
168	-64
120	-26
54	14
-2	52
-44	70
-48	60
-6	14
46	-22
96	-52
110	-72
108	-90
94	-102
82	-118
68	-146
58	-168
42	-176
42	-164
54	-152
70	-128
78	-104
86	-68
80	-32
76	0
72	22
80	28
88	20
94	8
84	-10
76	-26
68	-46
66	-64
66	-88
66	-118
68	-146
80	-168
88	-182
90	-168
92	-154
92	-126
90	-92
80	-60
76	-18
68	4
60	26
60	22
60	12
70	0
76	-12
80	-28
88	-42
84	-70
90	-92
96	-120
102	-146
112	-170
122	-174
130	-170
132	-156
126	-128
118	-98
104	-66
92	-32
70	-2
54	10
40	16
26	10
12	2
-4	-10
-18	-24
-34	-44
-50	-62
-50	-84
-38	-112
-12	-144
20	-166
62	-176
92	-168
108	-152
102	-120
60	-84
8	-38
-50	-4
-68	12
-36	12
20	14
72	0
116	-14
126	-28
124	-42
116	-62
112	-76
110	-98
102	-110
78	-132
54	-132
30	-126
22	-128
36	-130
72	-124
98	-104
102	-74
84	-50
62	-24
30	0
4	4
-12	0
-22	-10
-16	-24
0	-38
8	-52
-20	-68
-50	-88
-86	-112
-104	-142
-64	-172
22	-178
102	-172
144	-156
146	-128
136	-98
124	-68
118	-34
106	-4
96	20
86	14
82	4
78	-4
72	-16
68	-30
60	-52
52	-68
52	-96
46	-118
56	-144
66	-172
66	-184
52	-182
26	-162
-8	-128
-32	-90
-28	-54
-16	-24
4	4
24	14
24	26
14	18
-2	4
-14	-4
-20	-28
-24	-50
-20	-74
-12	-98
-2	-128
18	-158
30	-176
42	-184
52	-170
48	-156
42	-128
26	-94
12	-60
2	-22
-4	2
-6	18
-10	16
-8	2
-12	-12
-18	-26
-22	-38
-38	-48
-52	-64
-60	-82
-58	-126
-24	-158
24	-180
62	-190
80	-182
82	-156
68	-130
54	-102
32	-68
20	-36
4	-8
-12	4
-34	12
-58	8
-78	-10
-102	-24
-130	-38
-150	-54
-160	-74
-144	-94
-104	-126
-52	-154
10	-178
64	-186
94	-174
92	-156
68	-124
34	-86
-6	-48
-34	-30
-32	-18
-6	-18
14	-12
18	-10
16	-12
4	-20
-12	-42
-14	-58
-18	-78
-14	-102
-12	-132
-2	-164
6	-180
6	-192
8	-182
4	-168
0	-140
-2	-98
8	-68
6	-36
12	-6
16	8
4	8
0	4
-12	-12
-20	-30
-22	-42
-18	-66
-22	-86
-30	-110
-82	-136
-148	-162
-218	-172
-252	-172
-232	-168
-122	-150
16	-134
108	-108
138	-72
130	-34
100	-10
66	6
40	2
14	-6
8	-24
-10	-28
-20	-46
-22	-62
-18	-80
-4	-108
14	-138
34	-164
56	-184
70	-188
78	-182
70	-160
60	-130
50	-100
30	-66
16	-34
2	-10
-14	6
-24	14
-32	4
-34	-14
-40	-26
-36	-50
-36	-70
-26	-90
-22	-104
-20	-136
-14	-166
-6	-184
2	-186
4	-178
12	-150
10	-126
14	-92
2	-62
-2	-32
-4	-4
-24	16
-52	20
-84	10
-112	-2
-132	-12
-138	-40
-120	-66
-88	-94
-50	-110
-10	-142
30	-162
54	-178
64	-174
56	-160
42	-140
22	-110
22	-90
38	-74
38	-46
32	-12
14	0
-26	6
-60	6
-94	2
-114	-14
-116	-36
-82	-76
-12	-108
36	-130
62	-148
74	-172
74	-178
62	-178
52	-168
36	-150
24	-122
8	-92
-6	-66
-16	-30
-28	-10
-32	10
-40	16
-44	14
-44	2
-34	-12
-22	-42
-26	-70
-34	-100
-62	-116
-118	-134
-166	-146
-200	-158
-204	-160
-176	-162
-94	-154
-8	-136
50	-108
82	-74
86	-44
80	-22
76	-14
64	-14
44	-14
24	-18
18	-32
24	-52
32	-58
34	-80
30	-104
28	-134
28	-160
32	-190
36	-188
16	-174
-8	-152
-28	-112
-54	-78
-58	-58
-32	-40
0	-18
16	-8
14	-4
6	-6
-4	-18
-16	-28
-14	-46
-14	-68
-2	-92
14	-112
18	-146
30	-172
42	-192
44	-184
42	-176
28	-156
30	-130
18	-100
12	-64
-6	-34
-16	-8
-24	6
-30	2
-36	0
-42	-18
-46	-30
-42	-46
-48	-68
-46	-88
-42	-110
-32	-136
-22	-170
-12	-182
-2	-186
16	-176
28	-160
32	-132
34	-98
20	-58
2	-20
-12	16
-14	24
-10	8
-4	-2
4	-30
8	-48
12	-64
16	-82
20	-100
18	-118
24	-144
20	-168
22	-186
14	-188
8	-172
8	-148
6	-124
-2	-94
-6	-56
-14	-20
-20	6
-22	4
8	-4
42	-24
64	-44
66	-64
56	-78
40	-92
34	-106
34	-122
34	-148
40	-176
58	-184
70	-190
74	-186
76	-162
74	-134
64	-106
48	-74
36	-38
22	-18
12	-2
2	-4
-6	-10
-10	-22
-16	-40
-16	-66
-12	-84
-14	-108
-16	-122
-24	-136
-22	-150
-30	-162
-34	-182
-46	-176
-58	-154
-62	-132
-20	-108
46	-74
80	-42
72	-18
48	-2
26	-2
44	-14
66	-28
88	-40
88	-58
82	-72
68	-88
54	-116
56	-148
62	-172
80	-196
88	-200
92	-192
86	-172
68	-142
50	-104
26	-56
18	-26
30	-14
48	-10
62	-8
72	-24
76	-40
74	-56
78	-74
76	-88
76	-106
74	-128
76	-154
86	-180
90	-196
82	-194
86	-180
78	-156
72	-130
64	-98
54	-64
56	-32
62	-6
70	0
80	0
84	-8
84	-22
88	-38
92	-66
86	-80
94	-102
90	-122
100	-152
102	-180
108	-192
110	-196
106	-182
104	-162
96	-132
84	-104
78	-66
74	-38
74	-12
78	-8
86	-18
94	-36
102	-46
100	-64
104	-76
104	-92
100	-114
98	-134
90	-160
92	-184
94	-200
90	-194
68	-172
32	-136
0	-96
-28	-60
-28	-46
22	-42
90	-38
136	-36
142	-36
130	-36
118	-46
118	-66
122	-80
126	-98
126	-120
124	-140
118	-170
120	-196
116	-204
112	-196
102	-184
98	-154
96	-126
90	-100
88	-76
84	-56
82	-34
74	-26
76	-26
76	-38
64	-48
44	-62
18	-84
0	-104
12	-120
40	-152
76	-180
112	-202
130	-208
132	-206
128	-194
118	-174
106	-138
102	-102
106	-74
110	-42
108	-30
102	-20
98	-20
100	-36
82	-50
80	-72
80	-86
82	-100
86	-120
100	-144
104	-176
110	-198
116	-210
122	-212
116	-200
110	-180
104	-158
94	-122
86	-90
68	-58
30	-30
-28	-16
-88	-16
-120	-26
-106	-46
-22	-74
72	-94
122	-104
110	-118
72	-126
22	-148
-8	-160
6	-186
60	-200
108	-198
120	-176
104	-136
80	-98
56	-64
46	-40
40	-30
30	-24
4	-32
-6	-44
0	-50
14	-70
24	-82
34	-100
24	-110
14	-136
32	-174
62	-208
102	-218
120	-206
126	-194
114	-176
104	-148
86	-126
68	-90
54	-60
38	-40
28	-28
16	-34
10	-48
10	-60
14	-72
18	-74
28	-98
40	-120
54	-142
68	-170
76	-190
78	-202
78	-198
72	-184
54	-162
40	-132
24	-108
20	-86
0	-56
-2	-34
-10	-22
-16	-20
-16	-34
-4	-48
4	-60
22	-76
34	-100
46	-120
46	-136
56	-174
58	-192
60	-204
62	-204
58	-194
50	-168
40	-142
32	-112
20	-78
8	-54
-6	-36
-20	-28
-20	-36
-16	-50
-2	-62
20	-74
40	-92
68	-110
68	-134
78	-152
78	-182
78	-204
66	-210
28	-202
6	-172
-22	-132
-40	-112
-22	-106
24	-98
58	-86
68	-66
62	-54
54	-48
40	-54
38	-64
38	-80
46	-100
26	-118
0	-130
-50	-154
-100	-178
-130	-194
-110	-212
-50	-218
8	-210
20	-186
22	-156
20	-124
42	-94
76	-72
98	-56
80	-36
40	-28
0	-32
-22	-38
-6	-62
44	-96
94	-124
120	-146
126	-176
114	-200
98	-218
88	-232
78	-228
68	-216
60	-194
54	-166
56	-118
58	-82
54	-60
46	-44
50	-38
44	-48
40	-54
32	-64
28	-80
22	-104
28	-120
28	-140
36	-170
38	-198
40	-222
38	-234
48	-224
40	-210
32	-190
34	-160
24	-134
12	-102
8	-74
2	-54
-10	-42
-12	-34
-18	-50
-24	-64
-24	-82
-20	-98
-10	-112
2	-124
18	-152
30	-178
40	-202
50	-214
62	-210
66	-196
64	-182
56	-150
40	-118
26	-88
12	-60
-4	-44
-8	-34
-22	-36
-42	-38
-78	-38
-92	-44
-106	-58
-96	-96
-52	-142
12	-186
62	-224
84	-236
76	-244
82	-234
72	-218
78	-192
70	-164
66	-134
50	-100
44	-74
38	-58
36	-44
30	-46
28	-62
28	-70
24	-84
26	-96
24	-116
24	-130
26	-156
20	-184
20	-206
14	-216
6	-210
2	-200
-2	-174
4	-140
2	-112
-6	-80
-2	-54
-10	-28
-34	-24
-62	-30
-86	-44
-88	-62
-82	-80
-80	-98
-106	-108
-124	-122
-118	-138
-90	-166
-50	-200
-4	-222
10	-226
-24	-210
-48	-180
-20	-146
46	-112
100	-82
116	-44
104	-24
84	-20
72	-28
70	-48
72	-70
68	-78
58	-88
56	-98
46	-116
44	-142
46	-174
44	-196
42	-198
34	-204
28	-184
16	-166
8	-138
6	-104
8	-74
18	-46
28	-32
36	-28
46	-38
52	-48
56	-64
58	-80
56	-94
40	-102
14	-110
-4	-118
-22	-134
-8	-160
36	-182
110	-186
162	-178
182	-156
192	-122
180	-86
164	-58
146	-30
134	-14
120	-4
112	-14
110	-28
100	-38
98	-54
100	-68
102	-92
108	-112
116	-138
118	-166
134	-186
138	-196
154	-190
158	-184
156	-160
146	-130
136	-98
122	-76
110	-48
100	-28
90	-32
84	-36
80	-40
80	-48
90	-60
92	-80
96	-100
104	-110
112	-136
120	-158
122	-182
128	-192
136	-184
